timestamp,emg
0.0,0.0061689014747306
0.0287273771904625,0.0062479091429412
0.057454754380925,0.0063088553899437
0.0861821315713875,0.006145750478378
0.11490950876185,0.0060643560455746
0.1436368859523125,0.0060198493701954
0.172364263142775,0.0057297544783182
0.2010916403332375,0.0057147748126427
0.2298190175237,0.0058803818679594
0.2585463947141626,0.0055913295703728
0.2872737719046251,0.0058288005659821
0.3160011490950876,0.0061524733199522
0.3447285262855501,0.0062913372456446
0.3734559034760126,0.0062843172437622
0.4021832806664751,0.0062373304622018
0.4309106578569376,0.006030027038234
0.4596380350474001,0.0062506930490459
0.4883654122378627,0.004836777187595
0.5170927894283252,0.0072513473529366
0.5458201666187876,0.0062326565922576
0.5745475438092502,0.0057035271157973
0.6032749209997127,0.0058326728531386
0.6320022981901752,0.0059941757890226
0.6607296753806376,0.0059030496541012
0.6894570525711002,0.0055046679989282
0.7181844297615627,0.0060311894722541
0.7469118069520252,0.0058697900744914
0.7756391841424878,0.0059497980676983
0.8043665613329503,0.0059175357816924
0.8330939385234127,0.0056763468887093
0.8618213157138752,0.0058948747406979
0.8905486929043378,0.0059931745253326
0.9192760700948004,0.0061396155097913
0.9480034472852628,0.0060201541327488
0.9767308244757252,0.0059544333469443
1.0054582016661875,0.0061275787074345
1.0341855788566503,0.0063481100819703
1.062912956047113,0.0063752154113494
1.0916403332375753,0.0062569327216299
1.1203677104280378,0.0061444808137188
1.1490950876185004,0.006121813768125
1.1778224648089628,0.0060795255429393
1.2065498419994254,0.0059793501314274
1.235277219189888,0.0058885147071818
1.2640045963803503,0.0057367995122032
1.292731973570813,0.0055685264085
1.3214593507612753,0.0057935022768036
1.350186727951738,0.005712852850927
1.3789141051422005,0.0056446253764823
1.4076414823326628,0.0057350326136253
1.4363688595231254,0.0058511985014472
1.465096236713588,0.0058065621780579
1.4938236139040504,0.005774161683989
1.522550991094513,0.0059691544308671
1.5512783682849756,0.0059181996925114
1.580005745475438,0.005982528315092
1.6087331226659003,0.0062983218903108
1.637460499856363,0.0060060894785975
1.6661878770468257,0.0059887009668714
1.694915254237288,0.0063212650050736
1.7236426314277504,0.0060854525861427
1.752370008618213,0.0060212577929699
1.7810973858086756,0.0062139964853667
1.809824762999138,0.0062836502266069
1.8385521401896008,0.0059654645947785
1.8672795173800631,0.0060476532808852
1.8960068945705255,0.005970687620341
1.924734271760988,0.0059352648061315
1.9534616489514507,0.0059530929258433
1.982189026141913,0.0061511942029169
2.010916403332375,0.0056301842352347
2.0396437805228382,0.0055252440019859
2.0683711577133006,0.0054322036258232
2.097098534903763,0.0057257688573324
2.125825912094226,0.0055667451552342
2.154553289284688,0.0053785692582457
2.1832806664751505,0.0058881447981724
2.2120080436656133,0.0060625538931922
2.2407354208560757,0.0057970584658047
2.269462798046538,0.0057984922153162
2.298190175237001,0.0059316392908088
2.3269175524274632,0.0060188208744462
2.3556449296179256,0.0057337167904866
2.3843723068083884,0.0061361875676651
2.4130996839988508,0.0060083564667468
2.441827061189313,0.0059616724683746
2.470554438379776,0.0058907363893833
2.4992818155702383,0.0058281760780203
2.5280091927607007,0.0058965950887142
2.5567365699511635,0.0058054367131624
2.585463947141626,0.0057264098034006
2.614191324332088,0.0057000916019735
2.6429187015225506,0.0056222548372202
2.6716460787130134,0.0055054831893007
2.700373455903476,0.0055757941913641
2.729100833093938,0.0055592998380495
2.757828210284401,0.0057242197963145
2.7865555874748633,0.0055321863092782
2.8152829646653257,0.0049769926858057
2.8440103418557885,0.0057792833646894
2.872737719046251,0.0055822673874855
2.9014650962367132,0.0056531435843642
2.930192473427176,0.0056429975938946
2.9589198506176384,0.0055499243138011
2.9876472278081008,0.0056831996718555
3.0163746049985636,0.0058402210167148
3.045101982189026,0.0057337941969052
3.0738293593794883,0.0058211619227825
3.102556736569951,0.0062157681139704
3.1312841137604135,0.0065485183110133
3.160011490950876,0.0065227318448881
3.1887388681413387,0.0066562170583623
3.217466245331801,0.0064284688351392
3.2461936225222634,0.0064340126515242
3.274920999712726,0.006668920806187
3.303648376903189,0.0065161228188533
3.332375754093651,0.0073982071997241
3.3611031312841133,0.0116762319061866
3.389830508474576,0.0183651600857738
3.4185578856650385,0.0228024859538402
3.447285262855501,0.0245503469546504
3.4760126400459637,0.0259477033663779
3.504740017236426,0.0277280299724097
3.5334673944268884,0.0274419285592219
3.562194771617351,0.0271152131404311
3.5909221488078136,0.0247222447382626
3.619649525998276,0.0227833908483343
3.648376903188739,0.0233990253484915
3.677104280379201,0.0140671578875721
3.705831657569663,0.0158477310687971
3.7345590347601263,0.0080331016693911
3.7632864119505887,0.00740773221016
3.792013789141051,0.0065224731837322
3.820741166331514,0.0067825289292051
3.849468543521976,0.0066222707521014
3.8781959207124386,0.006343322721953
3.9069232979029014,0.006530255171995
3.935650675093364,0.0064760865022014
3.964378052283826,0.0061694693960532
3.993105429474289,0.0059928808248364
4.021832806664751,0.0060483983002522
4.050560183855214,0.0059375893827832
4.0792875610456765,0.0058894642894202
4.108014938236138,0.0059674383511347
4.136742315426601,0.0058072848105376
4.165469692617064,0.005723969698503
4.194197069807526,0.0054573109335239
4.222924446997989,0.0059713438594739
4.251651824188452,0.005910994565531
4.2803792013789135,0.0057956009833703
4.309106578569376,0.0057573057722473
4.337833955759839,0.005828173482334
4.366561332950301,0.0059585046936883
4.395288710140764,0.0059624243552672
4.424016087331227,0.0061654137427778
4.452743464521689,0.0058733722251926
4.481470841712151,0.0064792559514941
4.510198218902614,0.0061396540255345
4.538925596093076,0.0060839250120605
4.567652973283539,0.0063022294947646
4.596380350474002,0.0062893481210442
4.625107727664464,0.0063783003926872
4.6538351048549265,0.0062719801216406
4.682562482045389,0.0058046463687419
4.711289859235851,0.0067335983635409
4.740017236426314,0.0062046516559057
4.768744613616777,0.0051877784035226
4.797471990807239,0.0065012749426852
4.8261993679977016,0.0066434259635491
4.854926745188164,0.0061804501606543
4.883654122378626,0.0062229647014598
4.912381499569089,0.0062281551481919
4.941108876759552,0.0062087942266728
4.969836253950014,0.0060511965557468
4.998563631140477,0.0065680596807617
5.0272910083309394,0.0065154453663535
5.056018385521401,0.0054513896259037
5.084745762711864,0.0058988352669235
5.113473139902327,0.0060848239015377
5.142200517092789,0.0054393869817408
5.170927894283252,0.0057654333486866
5.199655271473714,0.0060228090745553
5.2283826486641765,0.0057180450869369
5.257110025854639,0.0056896838580983
5.285837403045101,0.0059959472137746
5.314564780235564,0.0063424156561154
5.343292157426027,0.0065511237615707
5.372019534616489,0.0064470967487325
5.4007469118069515,0.0065292940133176
5.429474288997414,0.0067159609285599
5.458201666187876,0.0067938642748435
5.486929043378339,0.0068330957928138
5.515656420568802,0.0059910835422463
5.544383797759264,0.0063187225549778
5.573111174949727,0.0068460077349148
5.601838552140189,0.0061762381636839
5.630565929330651,0.0062651655156261
5.659293306521114,0.0059658591724146
5.688020683711577,0.006255989996667
5.716748060902039,0.0062897442047985
5.745475438092502,0.0060807809445006
5.7742028152829645,0.0062323370195821
5.8029301924734265,0.0058606053337388
5.831657569663889,0.0060499643046816
5.860384946854352,0.0060787333686212
5.889112324044814,0.0061325217297042
5.917839701235277,0.0057697933403019
5.94656707842574,0.0049931922079436
5.9752944556162015,0.0066030391422099
6.004021832806664,0.0059008599041551
6.032749209997127,0.0062932280344545
6.061476587187589,0.0061136947531679
6.090203964378052,0.0062040838765146
6.118931341568515,0.0065488741022793
6.147658718758977,0.0067174472994771
6.176386095949439,0.0063828461121044
6.205113473139902,0.0065193146770648
6.233840850330364,0.0066442394018643
6.262568227520827,0.006537577346711
6.29129560471129,0.0065930762872953
6.320022981901752,0.0062399268600594
6.3487503590922145,0.0063041433585824
6.377477736282677,0.0061173094424252
6.406205113473139,0.0061787770380097
6.434932490663602,0.0058514033356364
6.463659867854065,0.006034442935313
6.492387245044527,0.0062942460604565
6.52111462223499,0.0060955518095086
6.549841999425452,0.0064077499040386
6.578569376615914,0.0063982930550366
6.607296753806377,0.0057049854614187
6.636024130996839,0.00610510026148
6.664751508187302,0.0060386233719262
6.693478885377765,0.0058671439942315
6.722206262568227,0.0056803323530416
6.750933639758689,0.0055177501160192
6.779661016949152,0.0055772363373718
6.808388394139614,0.0056976111010225
6.837115771330077,0.0057133280782548
6.86584314852054,0.0060688741303014
6.894570525711002,0.006027487989235
6.9232979029014645,0.0057636835279271
6.952025280091927,0.0059107660012415
6.980752657282389,0.0062817519379974
7.009480034472852,0.0058459226607231
7.038207411663315,0.0060523356659789
7.066934788853777,0.0060907927297201
7.09566216604424,0.0061498159682761
7.124389543234702,0.0060372118576274
7.153116920425164,0.0059804048727972
7.181844297615627,0.0058339679859673
7.21057167480609,0.0057556625329193
7.239299051996552,0.0060850965460454
7.268026429187015,0.006071124202441
7.296753806377477,0.0059627526941905
7.325481183567939,0.0059492805260547
7.354208560758402,0.0058872525152924
7.382935937948865,0.0062936169378509
7.411663315139327,0.0063236336517481
7.44039069232979,0.0055567659752103
7.469118069520253,0.0063693527985671
7.497845446710715,0.0085258623460646
7.526572823901177,0.0070919255618792
7.55530020109164,0.0099259608185543
7.584027578282102,0.0314509668736381
7.612754955472565,0.0283414120540999
7.641482332663028,0.0283664144752114
7.67020970985349,0.031349939439727
7.698937087043952,0.0302676442356594
7.727664464234415,0.034431930424334
7.756391841424877,0.0317277751423273
7.78511921861534,0.0261535145562725
7.813846595805803,0.0222624919420775
7.842573972996265,0.0160258945076096
7.871301350186728,0.0127991895507501
7.90002872737719,0.010997969901475
7.928756104567652,0.0072378183900156
7.957483481758115,0.007333984908925
7.986210858948578,0.0070144706890346
8.01493823613904,0.0064176178140967
8.043665613329502,0.0063450912450243
8.072392990519965,0.006667726970095
8.101120367710427,0.0065138976160954
8.12984774490089,0.0062858254878009
8.158575122091353,0.0063153481731134
8.187302499281815,0.0063016238130115
8.216029876472277,0.0064181365528064
8.24475725366274,0.0061106682862536
8.273484630853202,0.0058088111827926
8.302212008043664,0.0057169309011374
8.330939385234128,0.0058825837155686
8.35966676242459,0.0059288789960213
8.388394139615052,0.0058264292208411
8.417121516805516,0.0060113401794702
8.445848893995977,0.0058424903572176
8.47457627118644,0.0055848469838596
8.503303648376903,0.0057712214903344
8.532031025567365,0.0058911407337445
8.560758402757827,0.0059181875131443
8.58948577994829,0.0058228341279
8.618213157138753,0.0057279039249608
8.646940534329215,0.0056404463114002
8.675667911519678,0.0055931373912691
8.70439528871014,0.0056763362469262
8.733122665900602,0.0055029132690109
8.761850043091066,0.0053407904037233
8.790577420281528,0.0055059156295279
8.81930479747199,0.0055244924420818
8.848032174662453,0.0054734078235404
8.876759551852915,0.0057880432192521
8.905486929043377,0.0060178027647891
8.93421430623384,0.0057378012537329
8.962941683424303,0.0060808532108082
8.991669060614765,0.0060551475290582
9.020396437805228,0.0059189820932786
9.04912381499569,0.0061138415402307
9.077851192186152,0.0061342676586654
9.106578569376616,0.0059139735852981
9.135305946567078,0.0057471290765463
9.16403332375754,0.0064701073854847
9.192760700948003,0.0058687608952679
9.221488078138464,0.0057794231157666
9.250215455328927,0.0059134956171282
9.278942832519393,0.0058491361738601
9.307670209709851,0.0056408806826995
9.336397586900317,0.0058098723788333
9.36512496409078,0.006197720754664
9.39385234128124,0.0059543530758575
9.422579718471702,0.0064514237215126
9.451307095662166,0.0063118436036599
9.480034472852628,0.0062528736205576
9.50876185004309,0.0062855022307591
9.537489227233554,0.0059837026188105
9.566216604424016,0.005689028629164
9.594943981614476,0.0057790184626921
9.62367135880494,0.0060337078231866
9.652398735995405,0.0059317645649497
9.681126113185863,0.0058650458598182
9.709853490376329,0.0061597619923256
9.73858086756679,0.0061953825796673
9.767308244757253,0.0059537700524912
9.796035621947716,0.0062908784904107
9.824762999138178,0.0059195331730783
9.85349037632864,0.0060011006066396
9.882217753519104,0.0062197206773136
9.910945130709566,0.0059665056513609
9.939672507900028,0.0062427474073271
9.968399885090491,0.0063886137777528
9.997127262280951,0.0062375241568509
10.025854639471415,0.0060023285543654
10.05458201666188,0.0058729902650542
10.08330939385234,0.0059669905450415
10.112036771042805,0.0060652385370154
10.140764148233266,0.0057274168862617
10.169491525423728,0.0056297455113346
10.19821890261419,0.0056307929591748
10.226946279804654,0.0056309158134994
10.255673656995116,0.0056320096337792
10.284401034185578,0.0056384658016691
10.31312841137604,0.0057959795016808
10.341855788566503,0.0059521718720718
10.370583165756964,0.0058503852186503
10.399310542947427,0.005845858393352
10.428037920137893,0.006306762370176
10.456765297328351,0.0064160128633504
10.485492674518817,0.0060488560563553
10.51422005170928,0.0057752707706165
10.54294742889974,0.0057407640868617
10.571674806090202,0.0056568172217563
10.600402183280666,0.0056120753215771
10.629129560471128,0.0055077673144489
10.65785693766159,0.0051733863833162
10.686584314852054,0.005147712207018
10.715311692042516,0.0053771569360974
10.744039069232976,0.0054510927041719
10.77276644642344,0.0052904380721695
10.801493823613905,0.0061777293931891
10.830221200804363,0.0059334698543012
10.858948577994829,0.0057853817212552
10.88767595518529,0.0059853614819977
10.916403332375753,0.0060983923507707
10.945130709566216,0.0062369971248151
10.973858086756678,0.0063134288564325
11.00258546394714,0.0060606555673582
11.031312841137604,0.0059243584226011
11.060040218328066,0.0060121030762365
11.088767595518528,0.0058041270868413
11.117494972708991,0.0060910269302256
11.146222349899451,0.0061044461946802
11.174949727089915,0.0060065895908181
11.20367710428038,0.0059975960986888
11.23240448147084,0.0058987722068413
11.261131858661305,0.0057102475781913
11.289859235851766,0.0055829790083335
11.318586613042228,0.0059609981141572
11.34731399023269,0.0057982922860569
11.376041367423154,0.0055134081948043
11.404768744613616,0.0057188940874046
11.433496121804078,0.0061682478481088
11.462223498994542,0.0061249248834235
11.490950876185003,0.0059519354078293
11.519678253375464,0.0043887644675142
11.548405630565927,0.0056474996658859
11.577133007756393,0.0152254147894045
11.605860384946851,0.0185795776267921
11.634587762137317,0.0305795823102235
11.66331513932778,0.0257212522995517
11.69204251651824,0.0273753341326313
11.720769893708704,0.0295884388754496
11.749497270899166,0.029669553723507
11.778224648089628,0.0311609704583146
11.806952025280092,0.0228889416959341
11.835679402470554,0.0168529504571371
11.864406779661016,0.0136602629741396
11.89313415685148,0.0126271032493798
11.92186153404194,0.0080211115053526
11.950588911232405,0.0051480344891526
11.979316288422869,0.0060039927325685
12.008043665613329,0.0062037626258559
12.03677104280379,0.0057605077555519
12.065498419994254,0.0055560597462141
12.094225797184716,0.0055804754054402
12.122953174375178,0.0057990220002071
12.151680551565642,0.0057050459866385
12.180407928756104,0.0055572956657326
12.209135305946566,0.0056299441693652
12.23786268313703,0.0055387328393097
12.266590060327491,0.0056835904051051
12.295317437517951,0.0056024694043388
12.324044814708415,0.005717417230215
12.35277219189888,0.0057918628677626
12.38149956908934,0.0058448313328832
12.410226946279804,0.0061886909540271
12.438954323470266,0.006525484743665
12.467681700660728,0.0061138606447045
12.496409077851192,0.0060872527578757
12.525136455041654,0.0060410178111404
12.553863832232116,0.0059466080732858
12.58259120942258,0.0065203460028502
12.611318586613042,0.005134734858999
12.640045963803503,0.0052700546966396
12.668773340993967,0.005216697358116
12.697500718184427,0.0053700318588404
12.726228095374893,0.005498043444605
12.754955472565356,0.0052569937877589
12.783682849755817,0.0050134492162876
12.81241022694628,0.0055277154228045
12.841137604136742,0.0055143296130537
12.869864981327204,0.0057298809744029
12.898592358517666,0.0053792774034421
12.92731973570813,0.0052068387884046
12.956047112898592,0.0057705255059936
12.984774490089054,0.005797966385481
13.013501867279516,0.0057565184895483
13.04222924446998,0.0055783694810885
13.07095662166044,0.0054691453485969
13.099683998850905,0.0053453681362825
13.128411376041369,0.0053595422406072
13.157138753231829,0.0053966295866316
13.185866130422292,0.0049744098535831
13.214593507612754,0.0052479996394414
13.243320884803216,0.0052619936942995
13.272048261993678,0.0050626135327594
13.300775639184142,0.0049847710746143
13.329503016374604,0.005190962832398
13.358230393565066,0.0047908016335728
13.38695777075553,0.0047333848787075
13.415685147945991,0.0050417365498443
13.444412525136451,0.0050871745169272
13.473139902326915,0.004952438389529
13.50186727951738,0.0049802665968974
13.53059465670784,0.0050777423667348
13.559322033898304,0.0049963479037786
13.588049411088766,0.0051721526963233
13.616776788279228,0.0049707147971996
13.645504165469692,0.004903089710765
13.674231542660154,0.0052020097721104
13.702958919850616,0.0051438123832332
13.73168629704108,0.0048461940083333
13.76041367423154,0.005293572145923
13.789141051422003,0.0053466367675491
13.817868428612467,0.005519463133596
13.846595805802927,0.0054013890401905
13.875323182993393,0.0054382535269774
13.904050560183856,0.0051368661096887
13.932777937374317,0.0054117901341189
13.96150531456478,0.0053443642129112
13.990232691755242,0.0062538135400525
14.018960068945704,0.0059398855345965
14.047687446136166,0.0040371878818833
14.07641482332663,0.005529925039255
14.105142200517092,0.0054722106578348
14.133869577707554,0.0055152900168163
14.162596954898016,0.0052771927715449
14.19132433208848,0.0054165835961455
14.22005170927894,0.0054812583385928
14.248779086469405,0.0053297120434421
14.277506463659869,0.0053503965096096
14.306233840850329,0.005579470657597
14.334961218040792,0.0054612499386828
14.363688595231254,0.0048331939194058
14.392415972421716,0.0051211497824169
14.42114334961218,0.0052121513410372
14.449870726802642,0.0051492583333235
14.478598103993104,0.0054482113657812
14.507325481183567,0.005443888437892
14.53605285837403,0.0051465910454031
14.564780235564491,0.0053512186132801
14.593507612754957,0.0057676672651275
14.622234989945415,0.0054034996351166
14.65096236713588,0.0052858534225654
14.679689744326344,0.0058086266797334
14.708417121516804,0.0053336576604389
14.737144498707266,0.0052603396532669
14.76587187589773,0.0053806357399597
14.794599253088192,0.0053880805749166
14.823326630278654,0.0053560108881278
14.852054007469118,0.0051687948760541
14.88078138465958,0.0049777591889607
14.90950876185004,0.005002058840502
14.938236139040503,0.0048756070067683
14.966963516230969,0.0048037741983709
14.995690893421427,0.0049788507019827
15.024418270611893,0.0048521123395739
15.053145647802356,0.004754924110053
15.081873024992817,0.0049270024320008
15.11060040218328,0.0051510276206663
15.139327779373742,0.0051875069974926
15.168055156564204,0.005177707362926
15.196782533754668,0.0052971885808191
15.22550991094513,0.0054446355997034
15.254237288135592,0.0053842165750995
15.282964665326055,0.0054913636363868
15.311692042516515,0.0054488280548531
15.34041941970698,0.0056778294635193
15.369146796897445,0.0061684473494851
15.397874174087905,0.0092452405999436
15.426601551278369,0.0047441377873095
15.45532892846883,0.0327209362425849
15.484056305659292,0.0305768390218864
15.512783682849754,0.032938919904182
15.541511060040218,0.0341652532427292
15.57023843723068,0.0344619658978665
15.598965814421142,0.0348829850936527
15.627693191611606,0.0353565699774435
15.656420568802067,0.0335818011348686
15.68514794599253,0.0275792911797649
15.713875323182991,0.017153363936609
15.742602700373457,0.0201985871624332
15.771330077563915,0.0201840937489859
15.80005745475438,0.0046110093632736
15.828784831944844,0.0061411761873009
15.857512209135304,0.0075440496286858
15.886239586325768,0.0054208811874076
15.91496696351623,0.0054797992668804
15.943694340706692,0.0056817960852657
15.972421717897156,0.0055969828357642
16.001149095087616,0.0055017983902826
16.02987647227808,0.0054864996620779
16.058603849468543,0.0055607997360992
16.087331226659003,0.0056029861725131
16.116058603849467,0.0055409940692239
16.14478598103993,0.0053828196159467
16.17351335823039,0.0054531221867715
16.202240735420855,0.0056789998075292
16.23096811261132,0.00551426484581
16.25969548980178,0.0057824266618087
16.288422866992242,0.0057373711212229
16.317150244182706,0.005642932186236
16.345877621373166,0.0059991992585481
16.37460499856363,0.0063393151169144
16.403332375754093,0.0058211445533866
16.432059752944554,0.005855833332109
16.460787130135017,0.0055710357830536
16.48951450732548,0.0055962610213178
16.51824188451594,0.0056168771153104
16.546969261706405,0.0055120445004759
16.57569663889687,0.005274402010802
16.60442401608733,0.004985334772277
16.633151393277792,0.0054429454231278
16.661878770468256,0.0053748524727168
16.690606147658716,0.0054360097590399
16.71933352484918,0.0052074263299722
16.748060902039644,0.0052615505769295
16.776788279230104,0.0054208131771737
16.805515656420567,0.0053850645338246
16.83424303361103,0.0053624623223808
16.86297041080149,0.0053914570659003
16.891697787991955,0.0051702693648536
16.92042516518242,0.0055662630458571
16.94915254237288,0.0053294292210098
16.977879919563343,0.0052880887257357
17.006607296753806,0.005397729726344
17.035334673944266,0.0051848293997657
17.06406205113473,0.0052066739421022
17.092789428325194,0.0052297235987215
17.121516805515654,0.0051507443839474
17.150244182706118,0.0053727514776222
17.17897155989658,0.0053789137097557
17.20769893708704,0.0051102010995511
17.236426314277505,0.005176239280555
17.26515369146797,0.0054004089389211
17.29388106865843,0.0054727918825785
17.322608445848893,0.0053955552038551
17.351335823039356,0.0055536834808139
17.380063200229817,0.0055501942126147
17.40879057742028,0.0052201458430525
17.437517954610744,0.0053335467121351
17.466245331801204,0.005314716103415
17.494972708991668,0.0050983267014532
17.52370008618213,0.0051838129875058
17.55242746337259,0.0051072073364298
17.581154840563055,0.0048146821832334
17.60988221775352,0.0048965304672899
17.63860959494398,0.0050672471809929
17.667336972134443,0.0051019299001129
17.696064349324907,0.0050430830166858
17.724791726515367,0.0051979713345619
17.75351910370583,0.005294825446794
17.782246480896294,0.0049515924818562
17.810973858086754,0.0051878780643658
17.839701235277218,0.0053179235170425
17.86842861246768,0.0051948082220783
17.897155989658142,0.0050012947239414
17.925883366848606,0.0051925797434776
17.95461074403907,0.0050070420220868
17.98333812122953,0.0050491543707812
18.012065498419993,0.0053044947106782
18.040792875610457,0.0052125753297336
18.069520252800917,0.0052588024277613
18.09824762999138,0.0052044771604602
18.126975007181844,0.0053465957355985
18.155702384372304,0.0052369446660433
18.184429761562768,0.0052879952631144
18.213157138753232,0.0051215040059804
18.241884515943692,0.0048949550934865
18.270611893134156,0.0048132867503079
18.29933927032462,0.0050633907870195
18.32806664751508,0.0051885648721784
18.356794024705543,0.0051716367410432
18.385521401896007,0.0051605889432378
18.414248779086467,0.0051339619590376
18.44297615627693,0.005299457146837
18.47170353346739,0.0054669184283059
18.500430910657855,0.0051945582929598
18.52915828784832,0.005218138068706
18.557885665038786,0.0052927718730273
18.58661304222924,0.0050964804895829
18.615340419419702,0.0050644224291126
18.64406779661017,0.0055172703935994
18.67279517380063,0.0054499560687634
18.701522550991093,0.0050952633440983
18.730249928181557,0.0052800949159226
18.758977305372017,0.0051976661245091
18.78770468256248,0.0053027824469751
18.816432059752945,0.0051449106179796
18.845159436943405,0.0051915777635538
18.87388681413387,0.0053570761268411
18.902614191324332,0.0051449485062446
18.931341568514792,0.0046047078797305
18.960068945705256,0.0059377090866834
18.98879632289572,0.0058446484348694
19.01752370008618,0.0052367497940663
19.046251077276644,0.0053433528574614
19.074978454467107,0.0056789807754836
19.103705831657567,0.0053142168834314
19.13243320884803,0.0052484302947663
19.161160586038495,0.0051906298469142
19.189887963228955,0.0050946499683593
19.21861534041942,0.0050403017350471
19.24734271760988,0.005087772574555
19.276070094800343,0.0051828098059338
19.30479747199081,0.0048142545995544
19.33352484918127,0.0050691522825811
19.36225222637173,0.0051118402960978
19.390979603562194,0.0050940895855224
19.419706980752657,0.0051417765195216
19.44843435794312,0.0055434822671508
19.47716173513358,0.005000527382832
19.505889112324045,0.0049603183689341
19.534616489514505,0.0054864539603011
19.56334386670497,0.0046109790734077
19.592071243895433,0.0041639896263711
19.620798621085893,0.0217538557982766
19.649525998276356,0.0232941515589035
19.67825337546682,0.02829566077343
19.70698075265728,0.0319742452343889
19.735708129847744,0.0379597467487113
19.764435507038208,0.0394378265079664
19.793162884228668,0.0385547442152042
19.82189026141913,0.0373127849621191
19.850617638609595,0.0373001576363275
19.879345015800055,0.0347412145545175
19.90807239299052,0.0216387060188514
19.936799770180983,0.0096201033041123
19.965527147371443,0.0085781111112392
19.994254524561907,0.0096939863234813
20.02298190175237,0.0081484439990152
20.05170927894283,0.0063521324927916
20.080436656133298,0.0063630202942305
20.10916403332376,0.0061228149853873
20.137891410514214,0.0048109700172047
20.16661878770468,0.0054379797239982
20.195346164895145,0.0057858874062257
20.224073542085605,0.0056539249494956
20.25280091927607,0.0055866798527075
20.281528296466533,0.0059361842250575
20.310255673656993,0.0046096236530324
20.338983050847457,0.0055041602974413
20.36771042803792,0.0058367722900609
20.39643780522838,0.0052491605460237
20.425165182418844,0.0051803961058061
20.453892559609308,0.0053221337668718
20.482619936799768,0.0057457412696368
20.511347313990232,0.0055412849584241
20.540074691180696,0.0051277360903927
20.568802068371156,0.0051931536142763
20.59752944556162,0.0056478522423314
20.62625682275208,0.0054991434416599
20.654984199942543,0.0055038606649839
20.683711577133007,0.0060021693578793
20.712438954323467,0.0050533614402261
20.74116633151393,0.0052143391683667
20.76989370870439,0.0051788257235201
20.798621085894855,0.004983119039817
20.82734846308532,0.0052791496459311
20.856075840275786,0.0050649196427989
20.88480321746624,0.0051089610471526
20.913530594656702,0.0049427544676354
20.94225797184717,0.0052099582632032
20.97098534903763,0.0049544215258231
20.999712726228093,0.0051034109742146
21.028440103418557,0.0052707491710294
21.057167480609017,0.005013529728468
21.08589485779948,0.0048932172177487
21.114622234989945,0.0052410300568434
21.143349612180405,0.0050509152064016
21.17207698937087,0.0049425899015707
21.200804366561332,0.0049999202831844
21.229531743751792,0.0051449620289165
21.258259120942256,0.0052661362861905
21.28698649813272,0.0053462492052606
21.31571387532318,0.0052764632381473
21.344441252513644,0.0052265195867802
21.373168629704107,0.005359500421385
21.401896006894567,0.0050394038773011
21.43062338408503,0.0056178531334627
21.459350761275495,0.0057248660865212
21.488078138465955,0.0052504930275792
21.51680551565642,0.0050465335962621
21.54553289284688,0.005255065082832
21.574260270037342,0.0053585208427086
21.60298764722781,0.0050688201266682
21.63171502441827,0.005592742217658
21.66044240160873,0.005112069614011
21.689169778799194,0.0048560342511537
21.717897155989657,0.0052367397838828
21.74662453318012,0.0056460860720023
21.77535191037058,0.0045624095242073
21.804079287561045,0.0051749614196136
21.832806664751505,0.0054059426211086
21.86153404194197,0.0051251597127357
21.890261419132433,0.0049664560365807
21.918988796322893,0.0049525889954232
21.947716173513356,0.0048136344112903
21.97644355070382,0.0047019463304272
22.00517092789428,0.0049400570987029
22.033898305084744,0.0049856318864156
22.062625682275208,0.0041823491731331
22.091353059465668,0.0052912753838577
22.12008043665613,0.0050059265013937
22.148807813846595,0.0042980859274203
22.177535191037055,0.0056058071748524
22.20626256822752,0.0050662257768482
22.234989945417983,0.0047914080518208
22.263717322608443,0.0052103400369062
22.292444699798907,0.0052176777796537
22.32117207698937,0.0047949142959862
22.34989945417983,0.005046253320017
22.378626831370298,0.0050494401552115
22.40735420856076,0.0048719765505988
22.436081585751214,0.0047753674040925
22.46480896294168,0.0048830988917984
22.493536340132145,0.0046843824159686
22.522263717322605,0.0044544975464405
22.55099109451307,0.0070971101864392
22.579718471703533,0.0046763185596355
22.608445848893993,0.0028230097223059
22.637173226084457,0.0053391469116739
22.66590060327492,0.0050102927417959
22.69462798046538,0.004949878749035
22.723355357655844,0.0052094724121767
22.752082734846308,0.0052926189595387
22.780810112036768,0.0051284158080055
22.809537489227232,0.0049095629218934
22.838264866417695,0.0049760054522696
22.866992243608156,0.0053482393026691
22.89571962079862,0.0051634507436034
22.924446997989083,0.0054392317865386
22.953174375179543,0.0050093814255617
22.981901752370007,0.0050293802976929
23.01062912956047,0.0051712466515215
23.03935650675093,0.0053730844050255
23.06808388394139,0.0051056981181124
23.096811261131855,0.0051171954156232
23.12553863832232,0.0049220603302624
23.154266015512786,0.0048049218693605
23.18299339270325,0.0051169533638966
23.211720769893702,0.0050369768900488
23.24044814708417,0.0050399502249022
23.269175524274633,0.0051404532190744
23.297902901465093,0.0051579204452384
23.326630278655557,0.0050224921524163
23.35535765584602,0.0049061786684372
23.38408503303648,0.0049907545918779
23.412812410226945,0.004968470917559
23.44153978741741,0.0048360754760276
23.47026716460787,0.0050342098062437
23.498994541798332,0.0051144886644187
23.527721918988796,0.0050332310750419
23.556449296179256,0.005154211876425
23.58517667336972,0.0052446096526836
23.613904050560183,0.0053043389217844
23.642631427750644,0.0052946544544863
23.671358804941107,0.0053094861597334
23.70008618213157,0.0056813962064755
23.72881355932203,0.0050820800011374
23.757540936512495,0.005149032395107
23.78626831370296,0.0048860339950278
23.81499569089342,0.0091711729451715
23.84372306808388,0.0001096228434374
23.872450445274342,0.01899587293999645
23.90117782246481,0.0385078840413676
23.92990519965527,0.0320699070404394
23.958632576845737,0.029230616774535
23.987359954036194,0.0540340810871232
24.016087331226657,0.0449571206963773
24.04481470841712,0.0470913136502005
24.07354208560758,0.0463183329305938
24.102269462798045,0.0418978194065214
24.13099683998851,0.0391291578269649
24.15972421717897,0.0365345888505
24.188451594369432,0.0265166959139986
24.217178971559896,0.0244702008847858
24.245906348750356,0.01678859358122
24.27463372594082,0.0188203509223063
24.303361103131284,0.0140246036675969
24.332088480321744,0.0035403733080383
24.360815857512208,0.0082011849485686
24.38954323470267,0.0057826725978199
24.41827061189313,0.0059846540350072
24.446997989083595,0.005481853394745
24.47572536627406,0.0051814193275518
24.50445274346452,0.0048582308809444
24.533180120654983,0.005011223415786
24.561907497845446,0.0048629767029233
24.590634875035907,0.0049552730740534
24.61936225222637,0.0048374659631806
24.64808962941683,0.005096486048923
24.676817006607298,0.005061513245018
24.70554438379776,0.0050795533245389
24.73427176098822,0.0051790990637368
24.76299913817868,0.0053919504533949
24.791726515369145,0.005486133018268
24.82045389255961,0.0053178834348231
24.84918126975007,0.0047524676759606
24.877908646940533,0.0059562696090409
24.906636024130997,0.0054050559337659
24.935363401321457,0.0061839344042895
24.96409077851192,0.0057631636881759
24.992818155702384,0.0055774349558065
25.021545532892844,0.0063581710139734
25.050272910083308,0.0062664038019072
25.07900028727377,0.0059394799456445
25.10772766446423,0.006030882087304
25.136455041654695,0.0062054889515818
25.16518241884516,0.005614955996309
25.19390979603562,0.0056160669520773
25.222637173226083,0.0054155348042192
25.251364550416547,0.005050889335394
25.280091927607007,0.0050198444689387
25.30881930479747,0.005182032618645
25.337546681987934,0.0054367185318828
25.36627405917839,0.005387548361298
25.395001436368855,0.0050824005175119
25.42372881355932,0.0052375062410665
25.452456190749785,0.0054679063770535
25.48118356794025,0.0055300689098546
25.50991094513071,0.0053931409663532
25.53863832232117,0.0052465688734988
25.567365699511633,0.0052121762986236
25.596093076702097,0.0053635217972497
25.624820453892557,0.005666419613933
25.65354783108302,0.0052107885428426
25.682275208273484,0.0049144373285135
25.711002585463945,0.0052290524507623
25.73972996265441,0.0052632053174248
25.768457339844872,0.0051564004248924
25.797184717035332,0.0047370458660528
25.825912094225796,0.0045928465500254
25.85463947141626,0.0048224754984804
25.88336684860672,0.0049265568261677
25.912094225797183,0.0051030736605656
25.940821602987647,0.0050823996254792
25.969548980178107,0.0053260547431799
25.99827635736857,0.0053769163744296
26.027003734559035,0.0052851227384249
26.055731111749495,0.0056849274388615
26.08445848893996,0.0050715977555036
26.113185866130426,0.0051341621875103
26.14191324332088,0.0053252091982937
26.170640620511342,0.0049186521462011
26.19936799770181,0.0048971503704982
26.22809537489227,0.0047940310354034
26.256822752082737,0.0045692010805903
26.285550129273197,0.005034402747453
26.314277506463657,0.0049735555391995
26.34300488365412,0.0050333267420664
26.371732260844585,0.0049397172925922
26.400459638035045,0.0051541796595341
26.42918701522551,0.0050026166877679
26.457914392415972,0.0049742243628233
26.486641769606432,0.0047839489936455
26.515369146796896,0.0049011735133641
26.544096523987356,0.0051350068413099
26.57282390117782,0.0052111179078853
26.601551278368284,0.0052215803082293
26.630278655558744,0.0053328629959879
26.659006032749208,0.0053784336660253
26.68773340993967,0.0055996237052624
26.71646078713013,0.0056905527748266
26.745188164320595,0.0044677992552981
26.77391554151106,0.0052604513906551
26.80264291870152,0.0051741059215176
26.831370295891983,0.0049527485974695
26.860097673082446,0.005048051127726
26.888825050272903,0.0051401260570474
26.91755242746337,0.0050373720559106
26.94627980465383,0.0048406212661358
26.975007181844298,0.0048639061404924
27.00373455903476,0.0050090045658103
27.03246193622522,0.004838925310796
27.06118931341568,0.0046007099268539
27.089916690606145,0.0048693011513271
27.11864406779661,0.0046600228057158
27.14737144498707,0.0046233962163716
27.176098822177533,0.0055287981870733
27.204826199367997,0.0049461609405765
27.233553576558457,0.0047725747475159
27.26228095374892,0.005501385985768
27.291008330939384,0.0051917782803082
27.319735708129844,0.0044728376120793
27.348463085320308,0.0047158474405755
27.37719046251077,0.0045931576266238
27.40591783970123,0.0046382740781882
27.434645216891695,0.0046550391627464
27.46337259408216,0.0048450769213979
27.49209997127262,0.004672997172133
27.520827348463083,0.004661235811297
27.549554725653547,0.0040291799654216
27.578282102844007,0.0048456874266805
27.60700948003447,0.0088669420570191
27.635736857224934,0.0089352139202529
27.66446423441539,0.0184677193459098
27.693191611605855,0.0386456462149635
27.72191898879632,0.0440858974823094
27.750646365986785,0.0513062654325589
27.77937374317725,0.054728873830674
27.80810112036771,0.0548394646474788
27.83682849755817,0.0543131174863743
27.865555874748633,0.0543201560974964
27.894283251939097,0.0545816593300387
27.923010629129557,0.0414110472738282
27.95173800632002,0.028100844194265
27.980465383510484,0.0186782237075583
28.009192760700945,0.0122409920187587
28.03792013789141,0.0092884174702121
28.066647515081872,0.0080425542007923
28.095374892272332,0.0068649362773826
28.124102269462796,0.0059725873781152
28.15282964665326,0.0068454646058011
28.18155702384372,0.0076638140488623
28.210284401034183,0.0037940698008535
28.239011778224647,0.0055302012974903
28.267739155415107,0.0057165766875708
28.29646653260557,0.0050915546762176
28.325193909796035,0.0054008348455557
28.353921286986495,0.0056316055470366
28.38264866417696,0.0056197712407566
28.411376041367426,0.0055301607797982
28.44010341855788,0.0053103376243294
28.468830795748342,0.0052274187563061
28.49755817293881,0.0057526251676678
28.52628555012927,0.0054410354026439
28.555012927319737,0.0049777509285704
28.583740304510197,0.0052770191783958
28.612467681700657,0.0053536084085441
28.64119505889112,0.0049067344318135
28.669922436081585,0.0052474286863791
28.698649813272045,0.0067528057690393
28.72737719046251,0.0045951828402009
28.756104567652972,0.0052441858333684
28.784831944843432,0.0054489294907512
28.813559322033896,0.0054009625315162
28.84228669922436,0.0051636223118833
28.87101407641482,0.005226948479534
28.899741453605284,0.0056716325138968
28.928468830795747,0.0049353510198701
28.957196207986208,0.0052603580866686
28.98592358517667,0.0047930868497026
29.014650962367135,0.005162405025954
29.043378339557595,0.0050979852293469
29.07210571674806,0.0048817109206362
29.10083309393852,0.0050809117046672
29.129560471128983,0.0050849102431062
29.158287848319446,0.0052594298115946
29.18701522550991,0.0055396701104601
29.21574260270037,0.0044028004992086
29.24446997989083,0.005261960724044
29.273197357081298,0.0052576516874019
29.30192473427176,0.0055495488190843
29.33065211146222,0.005464565850841
29.359379488652685,0.0054186138794203
29.388106865843145,0.0054948172805456
29.41683424303361,0.0056351350680581
29.445561620224073,0.0055527995889623
29.474288997414533,0.0053534154627423
29.503016374604996,0.0052441283134678
29.53174375179546,0.0050784742141259
29.56047112898592,0.0049827249788128
29.589198506176384,0.0048228292055321
29.617925883366848,0.0047118885975966
29.646653260557308,0.0050432049630187
29.67538063774777,0.0050869657196324
29.704108014938235,0.0050016136272547
29.732835392128695,0.0050933124803665
29.76156276931916,0.0051055464658306
29.790290146509623,0.0051329636653779
29.819017523700083,0.0051861420960614
29.847744900890547,0.0049864569610665
29.87647227808101,0.0048671833638957
29.90519965527147,0.0048261589646085
29.933927032461938,0.0048445421445799
29.9626544096524,0.0046949640678101
29.991381786842854,0.005373526520252
30.02010916403332,0.0053250623674711
30.048836541223785,0.0029007474115821
30.07756391841425,0.0047576508405447
30.10629129560471,0.0047088140794835
30.135018672795173,0.0039304417758526
30.163746049985633,0.0042784695631064
30.192473427176097,0.0044053834706827
30.22120080436656,0.0045111477072663
30.24992818155702,0.0047304777167347
30.278655558747484,0.004787268617976
30.307382935937948,0.0047497110914579
30.336110313128408,0.0048977161877817
30.364837690318872,0.0049463091813377
30.393565067509336,0.0048270849476263
30.422292444699796,0.0048766591394414
30.45101982189026,0.0049527412420896
30.479747199080723,0.0049889022231872
30.508474576271183,0.0049073210455746
30.537201953461647,0.0048098417486089
30.56592933065211,0.0051133251042826
30.59465670784257,0.0049140630103701
30.623384085033035,0.0049140736133062
30.6521114622235,0.005090062205717
30.68083883941396,0.0052447321945173
30.709566216604426,0.0043916721691374
30.73829359379489,0.0046119090724491
30.767020970985342,0.004739539277575
30.79574834817581,0.004727085263984
30.824475725366273,0.0046032958929378
30.853203102556733,0.0046088353906748
30.881930479747197,0.0048178438094769
30.91065785693766,0.0047436026365461
30.93938523412812,0.0048666670420235
30.968112611318585,0.0050416532183412
30.99683998850905,0.0047573030197155
31.02556736569951,0.0047181240252611
31.054294742889972,0.0047712892428263
31.083022120080436,0.0049504948639403
31.111749497270896,0.005018109693813
31.14047687446136,0.0050013111021636
31.169204251651824,0.0049688439478659
31.197931628842284,0.0049981373789249
31.226659006032747,0.0052301983210583
31.25538638322321,0.0052891826643476
31.28411376041367,0.0056552509228501
31.312841137604135,0.0055757922530278
31.3415685147946,0.0054081048776827
31.37029589198506,0.0058237769973266
31.39902326917552,0.005381651425225
31.427750646365983,0.0056245541858509
31.456478023556446,0.005512266592065
31.48520540074691,0.0052417857984696
31.513932777937377,0.0053817495829193
31.54266015512783,0.0051677609744585
31.571387532318298,0.0053999390330733
31.60011490950876,0.0047060564019095
31.62884228669922,0.0071441513722289
31.657569663889685,0.0147350733571169
31.68629704108015,0.0194471043199785
31.71502441827061,0.0363304060633068
31.743751795461073,0.0424725010853336
31.772479172651536,0.0467130364268449
31.801206549841996,0.0457363923827295
31.82993392703246,0.0463835370973029
31.858661304222924,0.0437320718809228
31.887388681413384,0.0404082326747183
31.916116058603848,0.0379997522336552
31.94484343579431,0.0286521278699085
31.97357081298477,0.0184576349363563
32.00229819017523,0.0131574776738696
32.031025567365695,0.0112631012040367
32.05975294455616,0.0079437976649486
32.08848032174662,0.0069006088516505
32.11720769893709,0.0060017085795609
32.14593507612755,0.0055087832558137
32.17466245331801,0.0055912596389926
32.20338983050847,0.0056945772438937
32.232117207698934,0.0054616780364282
32.2608445848894,0.0055822634484083
32.28957196207986,0.0054754895520545
32.318299339270325,0.0053241447317513
32.34702671646078,0.0052470200277624
32.375754093651246,0.0053701047811802
32.40448147084171,0.0053466198483954
32.43320884803217,0.005152969648359
32.46193622522264,0.0056287821775567
32.4906636024131,0.0051538463920848
32.51939097960356,0.0047192691099227
32.54811835679402,0.0059575222278879
32.576845733984484,0.0055531987232166
32.60557311117495,0.0052206557315365
32.63430048836541,0.0055538910824109
32.663027865555875,0.0056081879967784
32.69175524274633,0.0055137791757975
32.720482619936796,0.0054451642721503
32.74920999712726,0.0053579516984679
32.77793737431772,0.0055318514380845
32.80666475150819,0.0057001953322662
32.83539212869865,0.0047935052402175
32.86411950588911,0.0050308933413312
32.89284688307957,0.0052968223887418
32.921574260270035,0.0051013711467541
32.9503016374605,0.0053343328797976
32.97902901465096,0.0051960758079195
33.007756391841426,0.0051054410291
33.03648376903188,0.0052518683900354
33.065211146222346,0.0049869755322568
33.09393852341281,0.005028455993258
33.12266590060327,0.00488140587272
33.15139327779374,0.0048352480337312
33.1801206549842,0.0043622577070318
33.20884803217466,0.0057411265312917
33.23757540936512,0.0054040718764499
33.266302786555585,0.0044261511903819
33.29503016374605,0.0056039703184947
33.32375754093651,0.0068365687813368
33.352484918126976,0.0029104686436089
33.38121229531743,0.005356419259187
33.409939672507896,0.005658846277725
33.43866704969836,0.0049673420082209
33.46739442688882,0.0049263524159657
33.49612180407929,0.0052704378747098
33.52484918126975,0.0050766890239788
33.55357655846021,0.0050368916436575
33.58230393565067,0.0054790127619661
33.611031312841135,0.005048939338726
33.6397586900316,0.0048789729419403
33.66848606722206,0.0053113698356305
33.697213444412526,0.0050523260159342
33.72594082160298,0.0050668433455206
33.754668198793446,0.0051356762641343
33.78339557598391,0.0049320808939952
33.812122953174374,0.0050419299207813
33.84085033036484,0.0050116129363246
33.8695777075553,0.0047696925764323
33.89830508474576,0.004957089268208
33.92703246193622,0.0050878629689794
33.955759839126685,0.0049505514556438
33.98448721631715,0.0051661855352197
34.01321459350761,0.0049294557987331
34.041941970698076,0.0050244357687846
34.07066934788853,0.0052546926702124
34.099396725078996,0.0051816117873389
34.12812410226946,0.0052467664184504
34.156851479459924,0.0053854976044552
34.18557885665039,0.0053823462577478
34.21430623384085,0.0054257019609907
34.24303361103131,0.0052479084183956
34.27176098822177,0.0056515521607673
34.300488365412235,0.0052500487197988
34.3292157426027,0.00530096018581
34.35794311979316,0.0052644753641042
34.386670496983626,0.0048200443197297
34.41539787417408,0.0050133416207936
34.44412525136455,0.0045370775714072
34.47285262855501,0.0046123603682361
34.501580005745474,0.0050048223237914
34.53030738293594,0.0049435221405744
34.5590347601264,0.0052124602369938
34.58776213731686,0.0052426007916895
34.61648951450732,0.0053493462055462
34.645216891697785,0.0050381856696016
34.67394426888825,0.0054712388334704
34.70267164607871,0.0055147644249417
34.73139902326918,0.0050903637141348
34.76012640045963,0.0050025541884134
34.7888537776501,0.0049936996989708
34.81758115484056,0.0050804290251027
34.846308532031024,0.0050486981564245
34.87503590922149,0.0052222574184336
34.90376328641195,0.0057413586589364
34.93249066360241,0.004808616783899
34.96121804079287,0.0054919967175569
34.989945417983336,0.0060060351747081
35.0186727951738,0.0048883443935471
35.04740017236426,0.0051198161155146
35.07612754955473,0.0056569802539925
35.10485492674518,0.0047451130521902
35.13358230393565,0.0049551853935372
35.16230968112611,0.0051990809012245
35.191037058316574,0.0048460039731079
35.21976443550704,0.00458973905931
35.2484918126975,0.0050238872144189
35.27721918988796,0.0048146574171337
35.30594656707842,0.0048889357681736
35.334673944268886,0.0045266100724868
35.36340132145935,0.0044793501016048
35.39212869864981,0.0046328483581113
35.42085607584027,0.0047771569583054
35.44958345303073,0.0047655146495882
35.4783108302212,0.0047683462799808
35.50703820741166,0.0048709520046618
35.535765584602125,0.0048696362361238
35.56449296179259,0.0048386272130023
35.593220338983045,0.0050110961103412
35.62194771617351,0.0047572649103223
35.65067509336397,0.0070200889896949
35.679402470554436,0.0163642902532858
35.7081298477449,0.026453644729135
35.73685722493536,0.0313671070091207
35.76558460212582,0.0372281683113804
35.794311979316284,0.0455997735701212
35.82303935650675,0.0442056288368307
35.85176673369721,0.0470296835985149
35.880494110887675,0.0447148516023602
35.90922148807814,0.0438700285412075
35.937948865268595,0.0426912250802228
35.96667624245906,0.0370500026628402
35.99540361964952,0.0228723211434743
36.024130996839986,0.012037610791907
36.05285837403045,0.0110364853633594
36.08158575122091,0.0053603912298021
36.11031312841137,0.0071208421707121
36.139040505601834,0.0067149354369803
36.1677678827923,0.0055948203004362
36.19649525998276,0.0050987136861532
36.225222637173225,0.0048324403983383
36.25395001436369,0.0052302805273101
36.282677391554145,0.0052173907777814
36.31140476874461,0.0046809394115374
36.34013214593507,0.0056114643973164
36.368859523125536,0.0053280517824386
36.397586900316,0.0052487957863822
36.426314277506464,0.0052802470174979
36.45504165469692,0.0051684590580499
36.483769031887384,0.0053309157922739
36.51249640907785,0.0052192190940975
36.54122378626831,0.0053425880198539
36.569951163458775,0.0055274695110236
36.59867854064924,0.0055693832844559
36.627405917839695,0.0055012962394105
36.65613329503016,0.0054746116860761
36.68486067222062,0.0052541902436724
36.713588049411086,0.0050420089628768
36.74231542660155,0.0049970432695119
36.771042803792014,0.0050049032006556
36.79977018098247,0.0046690903424574
36.828497558172934,0.0047922341377205
36.8572249353634,0.0047709116902489
36.88595231255386,0.00487843637652
36.914679689744325,0.0050776345483205
36.94340706693479,0.0042751684209196
36.972134444125246,0.0047777165979964
37.00086182131571,0.0049439229867102
37.02958919850617,0.004879901241429
37.05831657569664,0.0049042600913915
37.0870439528871,0.0048766251372333
37.11577133007757,0.004829291354223
37.14449870726802,0.00470752399213
37.17322608445848,0.0052668365796255
37.20195346164895,0.0051004988570027
37.23068083883941,0.0048807659897553
37.259408216029875,0.0048676210712306
37.28813559322034,0.0048844379756019
37.3168629704108,0.0049177593105799
37.34559034760126,0.0049223637210666
37.37431772479172,0.0047997080972878
37.40304510198219,0.004720388968053
37.43177247917265,0.0048160576810637
37.460499856363114,0.0049687250829618
37.48922723355357,0.0049737009427462
37.517954610744034,0.0049894999900823
37.5466819879345,0.005144392364858
37.57540936512496,0.0051989647671133
37.604136742315426,0.004949045014491
37.63286411950589,0.0063034496759357
37.661591496696346,0.0065894253685055
37.69031887388681,0.0060512670693112
37.71904625107727,0.0061006559012978
37.74777362826774,0.0063457785505709
37.7765010054582,0.006334902314788
37.805228382648664,0.0063258541040414
37.83395575983912,0.0061122583994196
37.862683137029585,0.0050043523862285
37.89141051422005,0.004723806279249
37.92013789141051,0.005072834677713
37.948865268600976,0.0049524222724491
37.97759264579144,0.0047675609129489
38.006320022981896,0.0047521089538368
38.03504740017236,0.0047809613107131
38.06377477736282,0.0047322219137366
38.09250215455329,0.004655895525168
38.12122953174375,0.0049222327174683
38.149956908934215,0.0048378366849689
38.17868428612467,0.0047798386947685
38.207411663315135,0.0051803231799471
38.2361390405056,0.0050531196200231
38.26486641769606,0.0055830257805333
38.293593794886526,0.005811797978808
38.32232117207699,0.0044767688314103
38.351048549267446,0.0050496788308988
38.37977592645791,0.0052330982968633
38.408503303648374,0.0047413029231108
38.43723068083884,0.0045722789715351
38.4659580580293,0.0046710466413255
38.494685435219765,0.00470976996378
38.52341281241022,0.0047108933223584
38.552140189600685,0.0046849724498391
38.58086756679115,0.0047051452630641
38.60959494398161,0.0048186383608551
38.63832232117208,0.0050423896448157
38.66704969836254,0.00529447460512
38.69577707555299,0.0052713636915148
38.72450445274346,0.0052886848794402
38.75323182993392,0.0053549211387486
38.78195920712439,0.0053804859931899
38.81068658431485,0.0054059616976486
38.839413961505315,0.0055190147409276
38.86814133869577,0.0053079743965042
38.896868715886235,0.0052388671079764
38.9255960930767,0.0051542949858278
38.95432347026716,0.0049547173448141
38.983050847457626,0.0049001758708395
39.01177822464809,0.0048378813315294
39.04050560183855,0.0049071168255596
39.06923297902901,0.004716198712004
39.097960356219474,0.0049937760988135
39.12668773340994,0.0043868978949469
39.1554151106004,0.00477345108236
39.184142487790865,0.0047505855849804
39.21286986498132,0.0046904739210625
39.241597242171785,0.0047868712987773
39.27032461936225,0.0045967885660302
39.29905199655271,0.0047707996353479
39.32777937374318,0.0047733488243278
39.35650675093364,0.0047465431957137
39.3852341281241,0.0046477937099478
39.41396150531456,0.0048674288518397
39.442688882505024,0.0048144199307133
39.47141625969549,0.0048255222862223
39.50014363688595,0.0053442611127303
39.528871014076415,0.0050942069825528
39.55759839126687,0.0044015314665702
39.586325768457336,0.0072631317045364
39.6150531456478,0.009466189642609
39.64378052283826,0.0128540255981806
39.67250790002873,0.0164800502163599
39.70123527721919,0.0170707192548
39.72996265440965,0.0316579771196865
39.75869003160011,0.0354763318102002
39.787417408790574,0.0417873637825363
39.81614478598104,0.0421094737995328
39.8448721631715,0.0416545447101239
39.873599540361965,0.0396793920492254
39.90232691755242,0.0346966427584295
39.931054294742886,0.0238085192709481
39.95978167193335,0.0134306751209008
39.98850904912381,0.0096210878185647
40.01723642631428,0.0070872065617893
40.04596380350474,0.0054820404923941
40.0746911806952,0.0057281970161993
40.10341855788566,0.0056162770572226
40.132145935076124,0.0054348940683139
40.16087331226659,0.0050786073394601
40.18960068945705,0.0055797618492903
40.21832806664752,0.0055393670364328
40.24705544383797,0.0055764146969592
40.27578282102843,0.0055786460336583
40.3045101982189,0.0051457337234117
40.33323757540936,0.0052543432626964
40.36196495259983,0.0054751337948759
40.39069232979029,0.0054088302609744
40.41941970698075,0.0050904518513972
40.44814708417121,0.0049090104262486
40.476874461361675,0.0048335254133983
40.50560183855214,0.0048663675435313
40.5343292157426,0.0052304061208868
40.563056592933066,0.0048101850941663
40.59178397012352,0.0047854932591016
40.620511347313986,0.0047417446023511
40.64923872450445,0.0046795760011951
40.67796610169491,0.0048306103238809
40.70669347888538,0.0047354960137532
40.73542085607584,0.0044954672217352
40.7641482332663,0.0044450675439966
40.79287561045676,0.0045931356116352
40.821602987647225,0.0047749233606914
40.85033036483769,0.0047863576941337
40.87905774202815,0.0046085409408582
40.907785119218616,0.0047390293619375
40.93651249640907,0.0052266452215025
40.965239873599536,0.0044981513476618
40.99396725079,0.0047858588753276
41.022694627980464,0.0050711088776935
41.05142200517093,0.0052082079278532
41.08014938236139,0.0054226248239091
41.10887675955185,0.0049324265830431
41.13760413674231,0.0050973321435107
41.166331513932775,0.0052451828856182
41.19505889112324,0.0049406056678788
41.2237862683137,0.0050140696742319
41.25251364550416,0.0051793638476508
41.28124102269462,0.0050788165400848
41.309968399885086,0.0048569996876304
41.33869577707555,0.0049604558542489
41.367423154266014,0.004906173040855
41.39615053145648,0.0048139111255615
41.424877908646934,0.0047261546953365
41.4536052858374,0.0046718698613199
41.48233266302786,0.004769152420958
41.511060040218325,0.0046050979103765
41.53978741740879,0.0045898136639642
41.56851479459925,0.0044114490298391
41.59724217178971,0.0045532750766692
41.62596954898017,0.0045969534609211
41.65469692617064,0.0045331013310406
41.6834243033611,0.0047154872419585
41.71215168055157,0.0046871764689539
41.74087905774203,0.0047865928440035
41.76960643493248,0.0048727166557684
41.79833381212295,0.0048433471438855
41.82706118931341,0.0045382272899527
41.855788566503875,0.0045099439042328
41.88451594369434,0.0046905868047765
41.9132433208848,0.0045706984747776
41.94197069807526,0.0047888872614861
41.97069807526572,0.0047226305462239
41.99942545245619,0.0045688578629592
42.02815282964665,0.0053264772626177
42.056880206837114,0.0052046971497535
42.08560758402758,0.0054633576028405
42.114334961218034,0.005397797596992
42.1430623384085,0.0053405483894394
42.17178971559896,0.0056003145289336
42.200517092789426,0.0050931387273712
42.22924446997989,0.0051854094785311
42.25797184717035,0.0054336265454932
42.28669922436081,0.0052019725614769
42.31542660155127,0.0047730229162582
42.34415397874174,0.0046641808757733
42.3728813559322,0.0046662383492483
42.401608733122664,0.0044755797324707
42.43033611031313,0.0043791968470409
42.459063487503585,0.0045904934593304
42.48779086469405,0.0047372717530781
42.51651824188451,0.0047103458794614
42.545245619074976,0.0047369069620811
42.57397299626544,0.0046309583693408
42.6027003734559,0.004638487617776
42.63142775064636,0.0047077656348958
42.66015512783682,0.0053521121842843
42.68888250502729,0.0050390294814075
42.71760988221775,0.0046402036078213
42.746337259408214,0.0048418048996113
42.77506463659868,0.0049488385424845
42.803792013789135,0.0050395270177437
42.8325193909796,0.0050642290021856
42.86124676817006,0.0050367680141055
42.889974145360526,0.0048074166475085
42.91870152255099,0.0048286278337141
42.94742889974145,0.0048799785350256
42.97615627693191,0.0046480202328899
43.004883654122374,0.0047956247980378
43.03361103131284,0.0044906665535547
43.0623384085033,0.0046525974800606
43.091065785693765,0.0052728742470288
43.11979316288423,0.0048841533779008
43.148520540074685,0.0049717475298786
43.17724791726515,0.0053037214811786
43.20597529445561,0.005133635044227
43.23470267164608,0.0048942260583081
43.26343004883654,0.0047364148605761
43.292157426027,0.0046611989263749
43.32088480321746,0.004852272478014
43.34961218040792,0.0051166815182364
43.37833955759839,0.0047928541193942
43.40706693478885,0.0050373802238561
43.435794311979315,0.0054710480814515
43.46452168916978,0.0043973311192755
43.493249066360235,0.0049985535490408
43.5219764435507,0.00487510242773
43.55070382074116,0.0048249450197091
43.579431197931626,0.0046746844258681
43.60815857512209,0.0049442310808274
43.636885952312554,0.0048978149893092
43.66561332950301,0.0049988805200801
43.694340706693474,0.0042487992501685
43.72306808388394,0.0048484707698612
43.7517954610744,0.0050268909865677
43.780522838264865,0.0075307371316393
43.80925021545533,0.0084130448595346
43.837977592645785,0.022735079383049597
43.86670496983625,0.020958752046759104
43.89543234702671,0.02722682522594135
43.924159724217176,0.06725422604785554
43.95288710140764,0.04774068476650384
43.981614478598104,0.04022012068065262
44.01034185578856,0.0392339257949583
44.039069232979024,0.0322328496285219
44.06779661016949,0.0276322126201348
44.09652398735995,0.0530538694906455
44.125251364550415,0.0376704642038698
44.15397874174088,0.02624945020849313
44.182706118931335,0.0192587986622404
44.2114334961218,0.0128931160537178
44.24016087331226,0.0069882402203505
44.26888825050273,0.007142824352184
44.29761562769319,0.0071364166962299
44.326343004883654,0.006198651431056
44.35507038207411,0.0052847203823948
44.383797759264574,0.0052906574234002
44.41252513645504,0.0047943331035959
44.4412525136455,0.0047576135565478
44.469979890835965,0.0050352623339414
44.49870726802643,0.004987184416611
44.527434645216886,0.0047792366090627
44.55616202240735,0.0048691984681015
44.58488939959781,0.0049757707336087
44.61361677678828,0.004950502068876
44.64234415397874,0.0049004508371121
44.6710715311692,0.0050644817604756
44.69979890835966,0.0051880581903722
44.72852628555013,0.0050899997986128
44.75725366274059,0.0055071006873725
44.78598103993105,0.0051791468893299
44.81470841712152,0.0049926177965661
44.84343579431198,0.0051884071482594
44.87216317150243,0.0050781114154621
44.9008905486929,0.004898580183842
44.92961792588336,0.0049069604488349
44.95834530307383,0.0047756174422289
44.98707268026429,0.0050953776755361
45.015800057454754,0.0046853043123902
45.04452743464521,0.0042784709361292
45.073254811835675,0.0058186026486388
45.10198218902614,0.0049751412691139
45.1307095662166,0.0047478383199358
45.159436943407066,0.0050808174791582
45.18816432059753,0.0049549934668225
45.216891697787986,0.0052539170935254
45.24561907497845,0.0051000518520618
45.27434645216891,0.0053596476695545
45.30307382935938,0.0047255090431781
45.33180120654984,0.0048487919468925
45.360528583740304,0.0050979635181812
45.38925596093076,0.0047565556693075
45.417983338121225,0.0045914876857141
45.44671071531169,0.0047270779793835
45.47543809250215,0.0046569239644058
45.504165469692616,0.0044734498248872
45.53289284688308,0.004716313166431
45.561620224073536,0.0045610733303937
45.590347601264,0.0048842020074378
45.619074978454464,0.0050614513277357
45.64780235564493,0.0051835986608162
45.67652973283539,0.0051135049643383
45.705257110025855,0.005347380942221
45.73398448721631,0.0056410109270527
45.762711864406775,0.0054564337835965
45.79143924159724,0.0055209224840711
45.8201666187877,0.0057349814067687
45.848893995978166,0.0052011479119407
45.87762137316863,0.0052581802602837
45.906348750359086,0.0045414482265253
45.93507612754955,0.0047727232568882
45.963803504740014,0.0049441394006143
45.99253088193048,0.0048486626868272
46.02125825912094,0.0047542283177751
46.049985636311405,0.0051468986236066
46.07871301350186,0.0050272668890479
46.107440390692325,0.0049631979339058
46.13616776788279,0.0050954682800386
46.16489514507325,0.0052073313170907
46.19362252226371,0.0050551200816329
46.22234989945418,0.0049268026868636
46.25107727664464,0.0048104582001201
46.2798046538351,0.0052570686827102
46.30853203102557,0.0051780299236531
46.33725940821603,0.0045083008884132
46.36598678540649,0.0048264537352252
46.394714162596955,0.0048926689656605
46.42344153978741,0.0049633076239891
46.452168916977875,0.005326483736642
46.48089629416834,0.0053708046020146
46.5096236713588,0.0049147388776789
46.538351048549266,0.0051637244332672
46.56707842573973,0.0057664555107449
46.59580580293019,0.0053572880205737
46.62453318012065,0.0054589438272301
46.653260557311114,0.0057962956900953
46.68198793450158,0.0056482093286225
46.71071531169204,0.0052667181789769
46.739442688882505,0.0054349424911831
46.76817006607296,0.00532186552155
46.796897443263425,0.0046835616688451
46.82562482045389,0.0059073928229382
46.85435219764435,0.0053462119522271
46.88307957483482,0.0048026909399636
46.91180695202528,0.005241971362523
46.94053432921574,0.0050132594898468
46.9692617064062,0.0052928676616359
46.997989083596664,0.0061856999969276
47.02671646078713,0.0060586193197475
47.05544383797759,0.005384172460164
47.08417121516805,0.0058530706436845
47.11289859235851,0.0056098407878282
47.141625969548976,0.0059422329614224
47.17035334673944,0.0057041143935289
47.1990807239299,0.0052896563586165
47.22780810112037,0.0051721893816234
47.25653547831082,0.0051376068373207
47.28526285550129,0.0047165747983449
47.31399023269175,0.0049291665272469
47.342717609882214,0.0056640822720706
47.37144498707268,0.0047851225724513
47.40017236426314,0.0052907011111586
47.4288997414536,0.0049099833019507
47.45762711864406,0.0053314354693252
47.486354495834526,0.0054948434802047
47.51508187302499,0.0051087755055078
47.54380925021545,0.0048381456418685
47.57253662740592,0.0067223239186721
47.60126400459637,0.0041518312190941
47.62999138178684,0.0052721861299997
47.6587187589773,0.005343447387902
47.687446136167765,0.0055668595648235
47.71617351335823,0.0053591945019247
47.74490089054869,0.0056219963558301
47.77362826773915,0.0055111451923487
47.80235564492961,0.0051345591033714
47.83108302212008,0.0052815156637885
47.85981039931054,0.0054737750059134
47.888537776501,0.0052807903047046
47.91726515369147,0.0046041575853845
47.94599253088192,0.0055404944565575
47.97471990807239,0.0083525229760415
48.00344728526285,0.0220629176642901
48.032174662453315,0.0194590898685715
48.06090203964378,0.0386990730272977
48.08962941683424,0.0401727625668053
48.1183567940247,0.0368501688684427
48.14708417121516,0.039683767352376
48.175811548405626,0.0413313521688527
48.20453892559609,0.0412368967140678
48.233266302786554,0.0371081914879929
48.26199367997702,0.0307210564123458
48.290721057167474,0.0261396239309067
48.31944843435794,0.0261122938789161
48.3481758115484,0.0217450154037936
48.376903188738865,0.0141083943980598
48.40563056592933,0.0115888595193199
48.43435794311979,0.0074203824995401
48.46308532031025,0.0055713378383795
48.49181269750071,0.0052093963834001
48.520540074691176,0.0053990707737354
48.54926745188164,0.0053196217145953
48.577994829072104,0.00491189647428
48.60672220626257,0.0049301896135454
48.635449583453024,0.0053200388479477
48.66417696064349,0.005184291298483
48.69290433783395,0.0051040896075181
48.721631715024415,0.0050835889106054
48.75035909221488,0.0051313281251921
48.77908646940534,0.0050803836224686
48.8078138465958,0.0050384071675228
48.83654122378626,0.0048790547699825
48.86526860097673,0.0046111952683773
48.89399597816719,0.0048060277151184
48.922723355357654,0.0050885087025233
48.95145073254812,0.0047459364162541
48.980178109738574,0.0047615901343138
49.00890548692904,0.0048651312447591
49.0376328641195,0.0048376130136621
49.066360241309965,0.0047756634159554
49.09508761850043,0.0049054874958738
49.12381499569089,0.005190491843468
49.15254237288135,0.0051495647576227
49.18126975007181,0.0049564534081451
49.20999712726228,0.0050153980877252
49.23872450445274,0.0049935146547336
49.2674518816432,0.0051592596381952
49.29617925883367,0.0050262335792713
49.32490663602413,0.0050565583891426
49.35363401321459,0.0048227173073939
49.38236139040505,0.0046806538441461
49.411088767595515,0.0046785388307695
49.43981614478598,0.0046299395108324
49.46854352197644,0.0047727719192452
49.4972708991669,0.0047124116559486
49.52599827635736,0.004886304317405
49.55472565354783,0.0046796653615825
49.58345303073829,0.0047266481922771
49.612180407928754,0.0044457324055411
49.64090778511922,0.0049444084110028
49.669635162309675,0.0055599338249833
49.69836253950014,0.0043004549017365
49.7270899166906,0.0044776552059359
49.755817293881066,0.0044661990575769
49.78454467107153,0.0050129781190545
49.81327204826199,0.004819395928407
49.84199942545245,0.004737470374028
49.87072680264291,0.0049132387430876
49.89945417983338,0.0051125140871925
49.92818155702384,0.0049110797594142
49.956908934214304,0.004942933594517
49.98563631140477,0.0051732851179444
50.014363688595225,0.0047265041872866
50.04309106578569,0.0047325919992287
50.07181844297615,0.0046623563622213
50.100545820166616,0.004927195410783
50.12927319735708,0.004877110451529
50.15800057454754,0.0044004603381839
50.186727951738,0.0047051511725646
50.21545532892846,0.0046323624361288
50.24418270611893,0.0047060390123338
50.27291008330939,0.0047368075742194
50.301637460499855,0.0045560541172715
50.33036483769032,0.0052784235103791
50.359092214880775,0.0049449079164689
50.38781959207124,0.0049269022530944
50.4165469692617,0.0051568524975864
50.445274346452166,0.0050530613115049
50.47400172364263,0.0050733895700301
50.50272910083309,0.0051473176229628
50.53145647802355,0.0052540539519696
50.560183855214014,0.0052039876029713
50.58891123240448,0.0051315028453549
50.61763860959494,0.0054335849652102
50.646365986785405,0.0050552008227538
50.67509336397587,0.0047690735959746
50.703820741166325,0.0053387742673553
50.73254811835679,0.0053142290568765
50.76127549554725,0.0047658071291213
50.79000287273771,0.0048329635142362
50.81873024992818,0.0046786808354228
50.84745762711864,0.004632183871402
50.8761850043091,0.0047323691222162
50.90491238149957,0.0047703170023162
50.93363975869003,0.0049817083201638
50.96236713588049,0.0049626440156028
50.991094513070955,0.0047558764314121
51.01982189026142,0.0049264361086537
51.048549267451875,0.0049767445223048
51.07727664464234,0.0050617374018032
51.1060040218328,0.0051154842140832
51.134731399023266,0.00494441514729
51.16345877621373,0.0048305248529983
51.192186153404194,0.0047396679426188
51.22091353059465,0.0046107481373969
51.249640907785114,0.0049415054177118
51.27836828497558,0.004928008410955
51.30709566216604,0.0045565355703265
51.335823039356505,0.0047744165319653
51.36455041654697,0.0047863521820182
51.393277793737425,0.0045528332395944
51.42200517092789,0.0047271809326584
51.45073254811835,0.0044410781114051
51.47945992530882,0.0046778272934124
51.50818730249928,0.0047369173604838
51.536914679689744,0.0046184354314097
51.5656420568802,0.0047012755902834
51.594369434070664,0.0049193062752927
51.62309681126113,0.0049089926675641
51.65182418845159,0.0050415994486659
51.680551565642055,0.0049769454049492
51.70927894283252,0.0049633841251903
51.738006320022976,0.0056073175210956
51.76673369721344,0.004312328468679
51.7954610744039,0.0048853684842812
51.82418845159437,0.0043397171073563
51.85291582878483,0.0064530817894284
51.881643205975294,0.0146815022582222
51.91037058316575,0.0134455813000118
51.939097960356214,0.0237818117177081
51.96782533754668,0.0412550423077536
51.99655271473714,0.036467443374516
52.025280091927605,0.0382637849058766
52.05400746911807,0.0410497297797465
52.082734846308526,0.0412309212774025
52.11146222349899,0.0441777087331216
52.14018960068945,0.0297645151208318
52.16891697787992,0.0328342081268777
52.19764435507038,0.0340292019202151
52.22637173226085,0.0106737164316052
52.2550991094513,0.0133792476590272
52.283826486641765,0.0033074966229734
52.31255386383223,0.0103412970056673
52.34128124102269,0.0112752921882784
52.37000861821315,0.0043959322259647
52.39873599540362,0.0047927139927471
52.42746337259408,0.0047145506306845
52.45619074978454,0.0052448972739751
52.484918126975,0.0047271953924872
52.51364550416547,0.0045129966089466
52.54237288135593,0.0045563026146301
52.571100258546394,0.0044922005694087
52.59982763573685,0.004831995145465
52.628555012927315,0.0048169859902232
52.65728239011778,0.0048431070216696
52.68600976730824,0.0049420452429723
52.714737144498706,0.0049966950927745
52.74346452168917,0.0050946935699657
52.772191898879626,0.0052717062738322
52.80091927607009,0.0053520312155226
52.82964665326055,0.0053858638956564
52.85837403045102,0.0054254915649351
52.88710140764148,0.005690142458881
52.915828784831945,0.0050394196265559
52.9445561620224,0.0051732710590871
52.973283539212865,0.005253910054918
53.00201091640333,0.0052310256753229
53.03073829359379,0.0057302272850003
53.059465670784256,0.0047224559508075
53.08819304797471,0.0047228874696403
53.116920425165176,0.0050882451638573
53.14564780235564,0.0049418408237838
53.174375179546104,0.0050108367170348
53.20310255673657,0.0048264272201725
53.23182993392703,0.004775080526241
53.26055731111749,0.0047853457338086
53.28928468830795,0.0048315509736587
53.318012065498415,0.005013059028908
53.34673944268888,0.0051470210437027
53.37546681987934,0.0048843956113005
53.404194197069806,0.0048666126518631
53.43292157426026,0.0043662948066283
53.46164895145073,0.0044805764060148
53.49037632864119,0.0055172470298699
53.519103705831654,0.0052217791595873
53.54783108302212,0.0050642225757922
53.57655846021258,0.0056816089946446
53.60528583740304,0.0056802293166592
53.6340132145935,0.0056721545009499
53.662740591783965,0.0057897462922643
53.69146796897443,0.005779467333651
53.72019534616489,0.0054065276571852
53.74892272335536,0.0054531095217976
53.77765010054581,0.0054589951052248
53.80637747773628,0.0052267605373664
53.83510485492674,0.0050615146127114
53.8638322321172,0.0051655633169217
53.89255960930767,0.0051747620788582
53.92128698649813,0.0049857895372362
53.95001436368859,0.0052523621916595
53.97874174087905,0.0050751340832595
54.007469118069515,0.0051425966676235
54.03619649525998,0.0050844358562325
54.06492387245044,0.0050902577241931
54.09365124964091,0.005042015663316
54.12237862683136,0.0048246712907505
54.15110600402183,0.0047841613778922
54.17983338121229,0.0047346051479496
54.208560758402754,0.0048423660475971
54.23728813559322,0.004927322003366
54.26601551278368,0.0048079337570655
54.29474288997414,0.0047339294496901
54.3234702671646,0.0048327057035526
54.352197644355066,0.0048754872390093
54.38092502154553,0.0049173632583045
54.40965239873599,0.0050566808358519
54.43837977592646,0.0051046962398186
54.46710715311691,0.0051712916145327
54.49583453030738,0.0054448999342814
54.52456190749784,0.0052871032511098
54.553289284688304,0.00513487659284
54.58201666187877,0.0054791096344761
54.61074403906923,0.0055274696844857
54.63947141625969,0.0055900091423508
54.66819879345015,0.005278987296959
54.696926170640616,0.0052918688388215
54.72565354783108,0.0053415218150956
54.75438092502154,0.0052304784093705
54.78310830221201,0.0050627394456255
54.81183567940246,0.0049375064691504
54.84056305659293,0.0048792858692592
54.86929043378339,0.0048347945366619
54.898017810973855,0.0054450476703558
54.92674518816432,0.0061044867025613
54.95547256535478,0.0042707788118556
54.98419994254524,0.005239437705036
55.0129273197357,0.0050157864235992
55.041654696926166,0.0050964116925958
55.07038207411663,0.0059736272854911
55.09910945130709,0.0055947944260082
55.12783682849756,0.0052801515906115
55.156564205688014,0.005270269556206
55.18529158287848,0.0052664769564637
55.21401896006894,0.0048341000344871
55.242746337259405,0.0055960616079397
55.27147371444987,0.0055746589744745
55.30020109164033,0.0046515207784154
55.32892846883079,0.0054986706133678
55.35765584602125,0.0058307800982125
55.38638322321171,0.0052612461214081
55.41511060040218,0.0052841317831428
55.44383797759264,0.005021529492597
55.47256535478311,0.0049751157481783
55.50129273197357,0.0046623788539495
55.53002010916403,0.005847357078097
55.55874748635449,0.0042680658410292
55.587474863544955,0.0046070411743196
55.61620224073542,0.0050333222447927
55.64492961792588,0.0051158658676761
55.67365699511634,0.005205087473495
55.7023843723068,0.0051526410723119
55.731111749497266,0.0051046615435401
55.75983912668773,0.0052386408111927
55.788566503878194,0.0050204993766012
55.81729388106866,0.0055345983621569
55.846021258259114,0.0046406093852182
55.87474863544958,0.0096215885913724
55.90347601264004,0.0185508855822061
55.932203389830505,0.02406529136326
55.96093076702097,0.0306762605759558
55.98965814421143,0.0340762410578872
56.01838552140189,0.0358695165695628
56.04711289859235,0.0363174338356087
56.07584027578282,0.0343791087023227
56.10456765297328,0.0347600970268957
56.133295030163744,0.0415946135713685
56.16202240735421,0.0250453328255869
56.190749784544664,0.0229963491847469
56.21947716173513,0.0184847982138996
56.24820453892559,0.0064238137832976
56.276931916116055,0.0083492065800471
56.30565929330652,0.0085115432921735
56.33438667049698,0.0054571121821917
56.36311404768744,0.0056529937535723
56.3918414248779,0.004974202714701
56.42056880206837,0.0050203786565039
56.44929617925883,0.0049869677733313
56.478023556449294,0.0049619865494764
56.50675093363976,0.0050616681568455
56.535478310830214,0.0050346549015487
56.56420568802068,0.0050027768252748
56.59293306521114,0.0051978443170726
56.621660442401605,0.005319394678956
56.65038781959207,0.0050658063642638
56.67911519678253,0.0051780870033649
56.70784257397299,0.0049789530557394
56.73656995116345,0.0054380978273783
56.76529732835392,0.0042406817964157
56.79402470554438,0.0046235618654462
56.82275208273485,0.0044916444820875
56.85147945992531,0.0047419455559926
56.880206837115765,0.0045392523435464
56.90893421430623,0.0047230185886197
56.93766159149669,0.0048992501822088
56.96638896868715,0.0049092501932985
56.99511634587762,0.0050224925643379
57.02384372306808,0.0049391908924263
57.05257110025854,0.0049861642422367
57.081298477449,0.0050413674665468
57.11002585463947,0.0054533975282052
57.13875323182993,0.0049910652211462
57.167480609020394,0.0052869072162716
57.19620798621086,0.0053389836461518
57.224935363401315,0.0052705829868461
57.25366274059178,0.0053158496757347
57.28239011778224,0.005279573234491
57.311117494972706,0.0053098891867816
57.33984487216317,0.0051875061450377
57.36857224935363,0.0051825055799034
57.39729962654409,0.004995429827063
57.42602700373455,0.005037258054662
57.45475438092502,0.0052333674421728
57.48348175811548,0.0050700887011628
57.512209135305945,0.0050450323124134
57.54093651249641,0.0049889166553336
57.569663889686865,0.0048015383749081
57.59839126687733,0.0050596411437314
57.62711864406779,0.0049195324396059
57.655846021258256,0.0050800019358317
57.68457339844872,0.0049420771282263
57.71330077563918,0.0049117053042308
57.74202815282964,0.004912395756678
57.770755530020104,0.004795428160969
57.79948290721057,0.0050553712073572
57.82821028440103,0.0049563298133033
57.856937661591495,0.0048008267342853
57.88566503878196,0.0048848276606617
57.914392415972415,0.0049600941827962
57.94311979316288,0.0046203597506468
57.97184717035334,0.005217166316008
58.000574547543806,0.0049704392305844
58.02930192473427,0.0047508822471964
58.05802930192473,0.0047582319301261
58.08675667911519,0.0048536085927814
58.115484056305654,0.0049814018267722
58.14421143349612,0.0049152160023657
58.17293881068658,0.0052500281771697
58.201666187877045,0.0046157729518923
58.23039356506751,0.0046860580920733
58.259120942257965,0.0048527155192497
58.28784831944843,0.0047025323964208
58.31657569663889,0.0046408935002653
58.34530307382936,0.0046135636247237
58.37403045101982,0.0046085219149834
58.40275782821029,0.0046524526040393
58.43148520540074,0.0047517713391815
58.4602125825912,0.0047352063181015
58.48893995978167,0.0051341954022417
58.51766733697213,0.0045549756262589
58.546394714162595,0.0048900467182321
58.57512209135306,0.0042241702275451
58.603849468543515,0.0045998444778899
58.63257684573398,0.0048149058571384
58.66130422292444,0.0048149777554513
58.69003160011491,0.0048192354759015
58.71875897730537,0.003722717424157
58.747486354495834,0.005448561090974
58.77621373168629,0.0061819951008078
58.804941108876754,0.0033267095948477
58.83366848606722,0.0038892118717544
58.86239586325768,0.0074883896087237
58.891123240448145,0.0047454016143362
58.9198506176386,0.0049772350404693
58.948577994829066,0.005184346094155
58.97730537201953,0.0050777438614102
59.00603274920999,0.0050694057296562
59.03476012640046,0.0050084074423826
59.06348750359092,0.004702277301967
59.09221488078138,0.0048665916857956
59.12094225797184,0.0048451503195046
59.149669635162304,0.0047425086129317
59.17839701235277,0.004662212698957
59.20712438954323,0.0048010186549751
59.235851766733695,0.0048916181439139
59.26457914392415,0.0047618887556737
59.293306521114616,0.0047118234560244
59.32203389830508,0.0053179564292139
59.35076127549554,0.0048679593739172
59.37948865268601,0.0041270725809738
59.40821602987647,0.0048400284925956
59.43694340706693,0.0046697920402034
59.46567078425739,0.0044711908965217
59.494398161447855,0.0046724637471323
59.52312553863832,0.004743347019852
59.55185291582878,0.0046765616024674
59.580580293019246,0.0045241172000634
59.6093076702097,0.004478201384593
59.638035047400166,0.0049696295367826
59.66676242459063,0.0046729221126335
59.69548980178109,0.0051114995435212
59.72421717897156,0.0048205279852198
59.75294455616202,0.0049682779369302
59.78167193335248,0.0048475950074683
59.81039931054294,0.0046886925962275
59.839126687733405,0.0054836426802717
59.86785406492387,0.0044470589499959
59.89658144211433,0.0044317777418599
59.9253088193048,0.0138182573700537
59.95403619649525,0.0073644175594456
59.98276357368571,0.0082887430306936
60.01149095087618,0.0495280228753771
60.04021832806664,0.0291938026613182
60.06894570525711,0.0349150490058293
60.09767308244757,0.0393329590203844
60.12640045963803,0.0402998547806581
60.15512783682849,0.0420123640464038
60.183855214018955,0.0515437029114661
60.21258259120942,0.0333413839878106
60.24130996839988,0.0399248183878707
60.270037345590346,0.0126334341388797
60.2987647227808,0.0236582770067055
60.327492099971266,0.0237947464629811
60.35621947716173,0.0176759778392944
60.384946854352194,0.0183815513178167
60.41367423154266,0.0141824866197278
60.44240160873312,0.0099640788437616
60.47112898592358,0.0065152990539648
60.49985636311404,0.0063923964157844
60.528583740304505,0.0057510029354888
60.55731111749497,0.0046657341818686
60.58603849468543,0.0053098542295389
60.614765871875896,0.0051736775018865
60.64349324906635,0.0052178794884589
60.672220626256816,0.0053678761293268
60.70094800344728,0.0054330584937977
60.729675380637744,0.0048678231109297
60.75840275782821,0.0049297195084004
60.78713013501867,0.0051433062943714
60.81585751220913,0.0050990217949659
60.84458488939959,0.0049124909692076
60.873312266590055,0.0049460153088728
60.90203964378052,0.0051089748753354
60.93076702097098,0.0048682391327467
60.959494398161446,0.0048584705665089
60.9882217753519,0.0050013039726571
61.01694915254237,0.0051765718039323
61.04567652973283,0.0053335305484563
61.074403906923294,0.0053073631014576
61.10313128411376,0.0052746120060917
61.13185866130422,0.0053353376706956
61.16058603849468,0.0053526166395185
61.18931341568514,0.0052758783787519
61.218040792875605,0.0051060075660605
61.24676817006607,0.0049247426204163
61.27549554725653,0.0048204789992784
61.304222924447,0.0047864782729339
61.33295030163745,0.0047271584403432
61.36167767882792,0.0047772816549484
61.39040505601838,0.0045428407158235
61.41913243320885,0.0046663676466284
61.44785981039931,0.0049174880764574
61.47658718758977,0.0050395339510335
61.50531456478023,0.0051477996166996
61.53404194197069,0.0053082151058387
61.56276931916115,0.005436841828428
61.59149669635162,0.005329091228559
61.62022407354208,0.0050085700590464
61.64895145073255,0.0052052102480017
61.677678827923,0.0052440535516534
61.70640620511347,0.0051695857243896
61.73513358230393,0.0050632550327257
61.763860959494394,0.0048173472528768
61.79258833668486,0.0047004477327795
61.82131571387532,0.0048382412001743
61.85004309106578,0.0050456023476192
61.87877046825624,0.0050210312889892
61.907497845446706,0.0049898297134048
61.93622522263717,0.0051668045512802
61.96495259982763,0.0052783433756873
61.9936799770181,0.0050796249902891
62.02240735420855,0.0050161934762555
62.05113473139902,0.0051439355316665
62.07986210858948,0.0050221461701279
62.108589485779945,0.0051278129602896
62.13731686297041,0.0050873807426263
62.16604424016087,0.0048236770971406
62.19477161735133,0.0051314197479327
62.22349899454179,0.0050270269105552
62.252226371732256,0.0047814091734856
62.28095374892272,0.004982442673758
62.30968112611318,0.0049053025261315
62.33840850330365,0.0047878058134747
62.367135880494104,0.0048700827380602
62.39586325768457,0.0048975515852929
62.42459063487503,0.0049425509238178
62.453318012065495,0.0050564149930679
62.48204538925596,0.0050526921027289
62.51077276644642,0.0049938279541428
62.53950014363688,0.0051326583784874
62.56822752082734,0.0051883226564655
62.596954898017806,0.0051984847448178
62.62568227520827,0.0052275921958091
62.65440965239873,0.0048778019072088
62.6831370295892,0.0050684280651808
62.711864406779654,0.0046327154972796
62.74059178397012,0.0049458744411657
62.76931916116058,0.0047604316122013
62.798046538351045,0.0048020908854306
62.82677391554151,0.0045556093783589
62.85550129273197,0.0047909834891496
62.88422866992243,0.0048823163474875
62.91295604711289,0.0046732363295165
62.94168342430336,0.0046159517017061
62.97041080149382,0.0046137004953864
62.99913817868429,0.0046451657360818
63.02786555587475,0.0049185100608543
63.0565929330652,0.0049575121541665
63.08532031025567,0.0050439436258171
63.11404768744613,0.0050502149012522
63.142775064636595,0.0048557297032792
63.17150244182706,0.0051884118453637
63.20022981901752,0.0050600696136555
63.22895719620798,0.0049519386871058
63.25768457339844,0.0049779274305438
63.28641195058891,0.004987478009633
63.31513932777937,0.0049542297180828
63.343866704969834,0.0048830626660406
63.3725940821603,0.0050852159503374
63.401321459350754,0.0047207695702113
63.43004883654122,0.0051550844211647
63.45877621373168,0.005096984122588
63.487503590922145,0.004655660227612
63.51623096811261,0.0046315835895477
63.54495834530307,0.0049387301562129
63.57368572249353,0.0050473306682316
63.60241309968399,0.0048263996674032
63.63114047687446,0.0052018362259781
63.65986785406492,0.0048691823515079
63.688595231255384,0.0047926312029324
63.71732260844585,0.0049349682159305
63.746049985636304,0.004856585245724
63.77477736282677,0.0046296916223266
63.80350474001723,0.0047696194320303
63.832232117207695,0.0045561281097519
63.86095949439816,0.0074503510444687
63.88968687158862,0.0059196193705306
63.91841424877908,0.0035587198533813
63.94714162596954,0.024701421210779
63.97586900316001,0.0234436486294175
64.00459638035046,0.0299779981147654
64.03332375754093,0.0302947876438663
64.06205113473139,0.0367908361450108
64.09077851192185,0.0267018305001654
64.11950588911232,0.0276627445278949
64.14823326630278,0.013213212190570483
64.17696064349325,0.017933913358294227
64.20568802068371,0.02016184656427267
64.23441539787417,0.0347681418184296
64.26314277506464,0.0163173437953264
64.2918701522551,0.0110757236951204
64.32059752944556,0.0102778853818574
64.34932490663601,0.0087275307776897
64.37805228382648,0.0101876241534768
64.40677966101694,0.0062885966603403
64.4355070382074,0.0069949717428346
64.46423441539787,0.0037499477845628
64.49296179258833,0.0050273274198381
64.5216891697788,0.005340817419351
64.55041654696926,0.0050586579697349
64.57914392415972,0.0049607678773193
64.60787130135019,0.0048386529999838
64.63659867854065,0.0049290238974141
64.66532605573111,0.0051790859507182
64.69405343292156,0.0048593910533828
64.72278081011203,0.0047651872935931
64.75150818730249,0.0047085305624912
64.78023556449295,0.0048341581205131
64.80896294168342,0.0049507931221883
64.83769031887388,0.0048881838085724
64.86641769606435,0.0047006893749052
64.89514507325481,0.0047333126299645
64.92387245044527,0.0048074152827279
64.95259982763574,0.0049418136752283
64.9813272048262,0.0049034449498735
65.01005458201665,0.0048702414119164
65.03878195920711,0.0049896125337222
65.06750933639758,0.0047750335018613
65.09623671358804,0.0051212553593929
65.1249640907785,0.0048006327638495
65.15369146796897,0.0046092510005193
65.18241884515943,0.0049909534362981
65.2111462223499,0.0048837349245303
65.23987359954036,0.0049646874116134
65.26860097673082,0.0050181702476495
65.29732835392129,0.0049910564507249
65.32605573111175,0.0050542641730638
65.3547831083022,0.0050790134185432
65.38351048549266,0.0049928339528056
65.41223786268313,0.0049664024090027
65.44096523987359,0.0050149824497324
65.46969261706406,0.0050376781620324
65.49841999425452,0.0050752291973783
65.52714737144498,0.0052188515552943
65.55587474863545,0.0052277466688349
65.58460212582591,0.0051467015178988
65.61332950301637,0.0051429793330851
65.64205688020684,0.0050960554019609
65.6707842573973,0.0050732359565821
65.69951163458775,0.0050901040375385
65.72823901177821,0.0051900395911467
65.75696638896868,0.0054301716174702
65.78569376615914,0.0051970898544818
65.8144211433496,0.004450535759511
65.84314852054007,0.0062488089672949
65.87187589773053,0.0053560503689876
65.900603274921,0.0054488966972811
65.92933065211146,0.0055703285594969
65.95805802930192,0.0054563686005275
65.98678540649239,0.0056090539811536
66.01551278368285,0.0055627508097701
66.0442401608733,0.0052213998724444
66.07296753806376,0.0063384236500144
66.10169491525423,0.006567788892445
66.13042229244469,0.0048899943554804
66.15914966963516,0.0057225491496018
66.18787704682562,0.006067170598827
66.21660442401608,0.0058700846823871
66.24533180120655,0.0058021675305557
66.27405917839701,0.0062594846786336
66.30278655558747,0.0061872276223436
66.33151393277794,0.0055493314637599
66.3602413099684,0.0058726430417029
66.38896868715885,0.0062118598124551
66.41769606434931,0.0058595803994674
66.44642344153978,0.0058652186574807
66.47515081873024,0.005852228866473
66.5038781959207,0.0057292248918459
66.53260557311117,0.0056414780245902
66.56133295030163,0.0056591933967139
66.5900603274921,0.0053114791141892
66.61878770468256,0.0052396815348528
66.64751508187302,0.0052956584137757
66.67624245906349,0.0051120622271934
66.70496983625395,0.0048678058104897
66.7336972134444,0.0048215105461687
66.76242459063486,0.0050250472732084
66.79115196782533,0.0052524596629363
66.81987934501579,0.005221128644582
66.84860672220626,0.0050903207509356
66.87733409939672,0.0057854177151883
66.90606147658718,0.0058887548742997
66.93478885377765,0.0057331186468367
66.96351623096811,0.0060883727349438
66.99224360815857,0.0062693572994827
67.02097098534904,0.0063148516275278
67.0496983625395,0.0062004747057764
67.07842573972995,0.0060760660217128
67.10715311692041,0.0059082437837125
67.13588049411088,0.005904940649269
67.16460787130134,0.0060820876795618
67.1933352484918,0.0050983566901027
67.22206262568227,0.0037380674039804
67.25079000287273,0.0068788177827419
67.2795173800632,0.0055993583854713
67.30824475725366,0.0052644782622663
67.33697213444412,0.0053834135953703
67.36569951163459,0.0053882262522619
67.39442688882505,0.005432045158777
67.4231542660155,0.0054081422777714
67.45188164320597,0.0057504727903203
67.48060902039643,0.0059674312946522
67.50933639758689,0.0056760928296542
67.53806377477736,0.0059480017639489
67.56679115196782,0.0056937535892578
67.59551852915828,0.0056810372929493
67.62424590634875,0.0056803969087475
67.65297328353921,0.0054026650013973
67.68170066072967,0.0054425945177351
67.71042803792014,0.0056189184420055
67.7391554151106,0.0047739487525738
67.76788279230105,0.0078346747516551
67.79661016949152,0.0133651004982618
67.82533754668198,0.0079945771504205
67.85406492387244,0.0240300008365501
67.8827923010629,0.0399234213703667
67.91151967825337,0.0317558607940449
67.94024705544383,0.035156192245516
67.9689744326343,0.0385761874378544
67.99770180982476,0.0411964836597866
68.02642918701522,0.041287485806529
68.05515656420569,0.0329913321066964
68.08388394139615,0.0247425536466841
68.1126113185866,0.0239684468038857
68.14133869577707,0.0193488516374527
68.17006607296753,0.0132288174928677
68.19879345015799,0.0194862215534351
68.22752082734846,0.0020118008146329
68.25624820453892,0.0036939372848671
68.28497558172938,0.0073126005890317
68.31370295891985,0.0069803628469316
68.34243033611031,0.0065311726381634
68.37115771330078,0.006357851473349
68.39988509049124,0.0062587922703665
68.4286124676817,0.0061349849113514
68.45733984487215,0.0061902271573457
68.48606722206262,0.0063477002340726
68.51479459925308,0.0061042228904606
68.54352197644354,0.0056337687765606
68.572249353634,0.0059036818744551
68.60097673082447,0.0053498132563255
68.62970410801493,0.0054957615329613
68.6584314852054,0.0059673211406993
68.68715886239586,0.0057454320447835
68.71588623958633,0.0050639120962623
68.74461361677679,0.0061896950461988
68.77334099396725,0.0054711462310035
68.8020683711577,0.0054328396288309
68.83079574834817,0.005546676984005
68.85952312553863,0.0054397516062761
68.8882505027291,0.0058638240433328
68.91697787991956,0.0057807716243663
68.94570525711002,0.0055879424255497
68.97443263430048,0.0060196603126705
69.00316001149095,0.0059112235359594
69.03188738868141,0.0058448017665169
69.06061476587188,0.0059260929806674
69.08934214306234,0.0056367181869574
69.1180695202528,0.0061750032746613
69.14679689744325,0.0054239393366369
69.17552427463372,0.0055320637278312
69.20425165182418,0.0056737217637695
69.23297902901464,0.0055355383678182
69.2617064062051,0.0052347578221109
69.29043378339557,0.0055668113690496
69.31916116058603,0.0054563704407776
69.3478885377765,0.0061082101309815
69.37661591496696,0.0060423828580545
69.40534329215743,0.0062109280382128
69.43407066934789,0.0061154867396727
69.46279804653835,0.0064309072935549
69.4915254237288,0.0061910189624392
69.52025280091927,0.0064653707989486
69.54898017810973,0.0065966068319784
69.5777075553002,0.0064811711313943
69.60643493249066,0.0061441316750436
69.63516230968112,0.0060078822836577
69.66388968687158,0.0061377096633454
69.69261706406205,0.0060902861594324
69.72134444125251,0.0058697186611601
69.75007181844298,0.0058235985284774
69.77879919563344,0.0055158419964212
69.8075265728239,0.0051882597845245
69.83625395001435,0.0051250631655185
69.86498132720482,0.0050557336329318
69.89370870439528,0.0050595857543877
69.92243608158574,0.0052624017327674
69.95116345877621,0.0052039416268801
69.97989083596667,0.005091050766822
70.00861821315713,0.0053304399063803
70.0373455903476,0.0050281495045601
70.06607296753806,0.0047918276451122
70.09480034472853,0.0054291162796343
70.12352772191899,0.0052075745486526
70.15225509910945,0.0056048731588553
70.1809824762999,0.0053800165219411
70.20970985349037,0.0053939128942059
70.23843723068083,0.005700476059827
70.2671646078713,0.0056563538751116
70.29589198506176,0.005474121534793
70.32461936225222,0.0059024780927461
70.35334673944269,0.0057717940466814
70.38207411663315,0.0055274267799438
70.41080149382361,0.0052707193791809
70.43952887101408,0.0054602722132311
70.46825624820454,0.005648936266672
70.496983625395,0.0056874278474464
70.52571100258545,0.0057481796485179
70.55443837977592,0.0056560025937071
70.58316575696638,0.0054209102556718
70.61189313415684,0.0054177911427098
70.64062051134731,0.0054506009636489
70.66934788853777,0.0052166273125029
70.69807526572824,0.0050361691011404
70.7268026429187,0.0051932682572386
70.75553002010916,0.0055592097992505
70.78425739729963,0.0055084106384896
70.81298477449009,0.0055099578864886
70.84171215168054,0.0056722505924434
70.870439528871,0.0055651750159352
70.89916690606147,0.0054372733376093
70.92789428325193,0.0052377918196269
70.9566216604424,0.0052025666463768
70.98534903763286,0.0054064333824462
71.01407641482332,0.0052695498562303
71.04280379201379,0.0051015079202451
71.07153116920425,0.0051461482636803
71.10025854639471,0.0052711780851196
71.12898592358518,0.0053066176613146
71.15771330077564,0.0054029471994489
71.18644067796609,0.0053111140575356
71.21516805515655,0.0049886181130981
71.24389543234702,0.0051311569119547
71.27262280953748,0.0051998707784486
71.30135018672794,0.0051148973059121
71.33007756391841,0.0052094739588305
71.35880494110887,0.005235847185458
71.38753231829934,0.0050610938647453
71.4162596954898,0.0051730832426768
71.44498707268026,0.0053514782979352
71.47371444987073,0.0053390282077596
71.50244182706119,0.0052500092558014
71.53116920425164,0.005380767742549
71.5598965814421,0.0053360775851114
71.58862395863257,0.0055254456412086
71.61735133582303,0.0053161467238738
71.6460787130135,0.0053105568546082
71.67480609020396,0.0056450576156216
71.70353346739442,0.0055287577844115
71.73226084458489,0.0053723964279991
71.76098822177535,0.0059063665276603
71.78971559896581,0.0063091698036875
71.81844297615628,0.0051749722020426
71.84717035334674,0.0054814084832751
71.87589773053719,0.0050398491133151
71.90462510772765,0.0067923676069998
71.93335248491812,0.0089516806629904
71.96207986210858,0.0115337606974863
71.99080723929904,0.016585329777232
72.01953461648951,0.0238743040452491
72.04826199367997,0.0255874833138986
72.07698937087044,0.025936832680362
72.1057167480609,0.0314095419327784
72.13444412525136,0.0294399170209195
72.16317150244183,0.0281598413531479
72.19189887963229,0.0276894227965778
72.22062625682274,0.0238084824425497
72.2493536340132,0.0175028678546794
72.27808101120367,0.0129426836707413
72.30680838839413,0.0122803390579414
72.3355357655846,0.0086853958726786
72.36426314277506,0.0072919152930144
72.39299051996552,0.0087841236100588
72.42171789715599,0.0078056412567633
72.45044527434645,0.0054771798007806
72.47917265153691,0.0065394206970388
72.50790002872738,0.0056418767747862
72.53662740591784,0.0056091595120753
72.56535478310829,0.0054272214159354
72.59408216029875,0.0053818692637496
72.62280953748922,0.0052988999831533
72.65153691467968,0.0051222596415136
72.68026429187015,0.0054914508050441
72.70899166906061,0.0053639707415046
72.73771904625107,0.0053286764184202
72.76644642344154,0.0051818118660449
72.795173800632,0.0053450878935131
72.82390117782246,0.0054007839919594
72.85262855501293,0.0055824710003461
72.88135593220339,0.0052877899967492
72.91008330939384,0.0053212723808793
72.9388106865843,0.0055085287478671
72.96753806377477,0.0051420748044032
72.99626544096523,0.0052889022604837
73.0249928181557,0.0052963318463899
73.05372019534616,0.0051313850788844
73.08244757253662,0.0050937439599112
73.11117494972709,0.0054415370235679
73.13990232691755,0.0049487721645973
73.16862970410801,0.0038175778949053
73.19735708129848,0.0057026509542068
73.22608445848894,0.0050135306920277
73.25481183567939,0.005081715244383
73.28353921286985,0.0048097110303499
73.31226659006032,0.0048078071612478
73.34099396725078,0.0048180292437352
73.36972134444125,0.0048499888070025
73.39844872163171,0.0052617175843984
73.42717609882217,0.0047862719508274
73.45590347601264,0.0049031545949119
73.4846308532031,0.0049476618605268
73.51335823039356,0.004925891953448
73.54208560758403,0.0047579867459284
73.57081298477449,0.0050361246056621
73.59954036196494,0.0046201819111028
73.6282677391554,0.0046680442092819
73.65699511634587,0.0043938400064652
73.68572249353633,0.0049456304676206
73.7144498707268,0.0041929643725049
73.74317724791726,0.005564864002664
73.77190462510772,0.0049479956588166
73.80063200229819,0.0044969124074878
73.82935937948865,0.0046184861668714
73.85808675667911,0.0046977104267084
73.88681413386958,0.0045667629863504
73.91554151106004,0.0044626857212822
73.94426888825049,0.0047382541045829
73.97299626544095,0.0046811932432151
74.00172364263142,0.0049362371468265
74.03045101982188,0.0049794059929352
74.05917839701235,0.0049175213432369
74.08790577420281,0.0050019277857444
74.11663315139327,0.0050421490886105
74.14536052858374,0.0052860208569705
74.1740879057742,0.005253829055882
74.20281528296466,0.0049951064798253
74.23154266015513,0.0049863268007168
74.26027003734559,0.0053208638184249
74.28899741453604,0.005307373091856
74.3177247917265,0.0054144493570933
74.34645216891697,0.0049054102072888
74.37517954610743,0.0049704265295036
74.4039069232979,0.0049186440050279
74.43263430048836,0.0050919682408657
74.46136167767882,0.0055236982956226
74.49008905486929,0.0039181383172934
74.51881643205975,0.0061123929478311
74.54754380925021,0.0058171234000095
74.57627118644068,0.0044624471388759
74.60499856363114,0.0048754780390605
74.63372594082159,0.0053985429542657
74.66245331801206,0.0053131993529287
74.69118069520252,0.0050729679066005
74.71990807239298,0.0052294158126148
74.74863544958345,0.0050699686152966
74.77736282677391,0.0049718551982371
74.80609020396437,0.0051361989713587
74.83481758115484,0.0049545443232574
74.8635449583453,0.0051323362494419
74.89227233553576,0.0051137142682829
74.92099971272623,0.0049762038068042
74.94972708991669,0.0050973466917566
74.97845446710714,0.0051493138623407
75.0071818442976,0.005226267447006
75.03590922148807,0.0052212049822455
75.06463659867853,0.0050951349087845
75.093363975869,0.0051626411400889
75.12209135305946,0.0050740630374429
75.15081873024992,0.0048122727798926
75.17954610744039,0.0047162896741792
75.20827348463085,0.0049236299930022
75.23700086182131,0.0049759611882755
75.26572823901178,0.0049322615649287
75.29445561620224,0.0049862603061602
75.32318299339269,0.0049362480318782
75.35191037058316,0.0049625901544435
75.38063774777362,0.00496345732045
75.40936512496408,0.0049690818968051
75.43809250215455,0.0052057561545475
75.46681987934501,0.004743318597462
75.49554725653547,0.0050053561726176
75.52427463372594,0.005221406450591
75.5530020109164,0.0051412535514652
75.58172938810687,0.0050141892183202
75.61045676529733,0.0051736356512065
75.63918414248779,0.005205955575767
75.66791151967824,0.0051409697504503
75.6966388968687,0.004995031107538
75.72536627405917,0.0053472805675007
75.75409365124963,0.0049611654746271
75.7828210284401,0.0050151792328946
75.81154840563056,0.0055172594220814
75.84027578282102,0.0059557000270552
75.86900316001149,0.012987762043802
75.89773053720195,0.0196224220003751
75.92645791439242,0.0259266802866042
75.95518529158288,0.0298481335627564
75.98391266877334,0.0302378246688176
76.01264004596379,0.0318436591216074
76.04136742315426,0.0371465010703001
76.07009480034472,0.0386653305156435
76.09882217753518,0.0402539148548104
76.12754955472565,0.0354904499730321
76.15627693191611,0.0320605790337835
76.18500430910657,0.0262828821832976
76.21373168629704,0.0261550254959833
76.2424590634875,0.0399407900571671
76.27118644067797,0.0019011258243491
76.29991381786843,0.0126561350920722
76.32864119505889,0.0068283436762458
76.35736857224934,0.0056125638327726
76.3860959494398,0.0050519126561711
76.41482332663027,0.0051862377522246
76.44355070382073,0.0047506500961676
76.4722780810112,0.0049259612019791
76.50100545820166,0.0047877704868458
76.52973283539212,0.0051764866982995
76.55846021258259,0.0051139395990033
76.58718758977305,0.0049468473854231
76.61591496696352,0.005120543010998
76.64464234415398,0.0052649487043481
76.67336972134443,0.0050808805627212
76.70209709853489,0.0049365941800891
76.73082447572536,0.0052710367937964
76.75955185291582,0.0049440784164491
76.78827923010628,0.0052199002201403
76.81700660729675,0.0051092051484211
76.84573398448721,0.0050343943665606
76.87446136167767,0.0050032177376334
76.90318873886814,0.0049078711014772
76.9319161160586,0.0049641395815256
76.96064349324907,0.0050412914238087
76.98937087043953,0.0049305376481358
77.01809824762998,0.0049417213151971
77.04682562482044,0.004871111759323
77.0755530020109,0.0049810933031707
77.10428037920137,0.005029349708152
77.13300775639183,0.0049447868890319
77.1617351335823,0.0050449878435924
77.19046251077276,0.0050101364423151
77.21918988796322,0.0051012770056205
77.24791726515369,0.0047877442388619
77.27664464234415,0.0048368892436484
77.30537201953462,0.0048478910871311
77.33409939672508,0.0052287479985664
77.36282677391553,0.005135791568144
77.39155415110599,0.0050925392999708
77.42028152829646,0.004990035727928
77.44900890548692,0.0051568798947521
77.47773628267738,0.0047803077089843
77.50646365986785,0.0049970455801554
77.53519103705831,0.0050916931089629
77.56391841424877,0.0050133676470281
77.59264579143924,0.0049192734988633
77.6213731686297,0.0050278603956905
77.65010054582017,0.0048377639263498
77.67882792301063,0.0047274139210495
77.70755530020108,0.0047727971021921
77.73628267739154,0.0048228860824535
77.765010054582,0.0050781468437831
77.79373743177247,0.0045562844957747
77.82246480896293,0.0046725670568818
77.8511921861534,0.0049528474582338
77.87991956334386,0.0048222350025963
77.90864694053433,0.0046266606698061
77.93737431772479,0.0051288185401942
77.96610169491525,0.0052132217429675
77.99482907210572,0.0048233975353373
78.02355644929618,0.00499151902403
78.05228382648663,0.0049529218042883
78.0810112036771,0.0050494943899496
78.10973858086756,0.0048960672294041
78.13846595805802,0.0048067961038611
78.16719333524848,0.00465468335955
78.19592071243895,0.0048436000045055
78.22464808962941,0.004551244288706
78.25337546681988,0.0049363093577755
78.28210284401034,0.004696598554474
78.3108302212008,0.0049568244910421
78.33955759839127,0.0051175850411167
78.36828497558173,0.0049083194824592
78.39701235277218,0.0051146099619874
78.42573972996264,0.0053495757220109
78.4544671071531,0.0050228309388107
78.48319448434357,0.0052970107133944
78.51192186153403,0.0056571686947296
78.5406492387245,0.0050261196469988
78.56937661591496,0.0050512632176251
78.59810399310543,0.0054965066198622
78.62683137029589,0.0046348111467779
78.65555874748635,0.0049659909212805
78.68428612467682,0.0051346463132817
78.71301350186728,0.0052608327685644
78.74174087905773,0.0053784443049928
78.7704682562482,0.0052026850955227
78.79919563343866,0.0051296435461536
78.82792301062912,0.0050647467228723
78.85665038781958,0.0048574662072311
78.88537776501005,0.0049218363913353
78.91410514220051,0.0050057814157814
78.94283251939098,0.0049589015443601
78.97155989658144,0.0049449196701869
79.0002872737719,0.0050109806569293
79.02901465096237,0.005122036592222
79.05774202815283,0.005338698831536
79.08646940534328,0.0053598758846858
79.11519678253374,0.005178377136726
79.14392415972421,0.0050220463893544
79.17265153691467,0.0049269102442577
79.20137891410513,0.0048095565803906
79.2301062912956,0.0046342116731173
79.25883366848606,0.0046356241961799
79.28756104567653,0.0047998705918854
79.31628842286699,0.0048203566749959
79.34501580005745,0.0047475181556339
79.37374317724792,0.004748036050764
79.40247055443838,0.0048197685190898
79.43119793162883,0.0048871580667004
79.4599253088193,0.0048394766210178
79.48865268600976,0.0048783416297586
79.51738006320022,0.0049601814088826
79.54610744039068,0.0048976858960596
79.57483481758115,0.0048338864582781
79.60356219477161,0.004929382500037
79.63228957196208,0.0049189837216781
79.66101694915254,0.0052957370335699
79.689744326343,0.0052511975934499
79.71847170353347,0.0057157684561475
79.74719908072393,0.0057757859003161
79.77592645791438,0.005452213218342
79.80465383510484,0.0055843837495361
79.83338121229531,0.005514759622021
79.86210858948577,0.0055273161189086
79.89083596667624,0.0054884161864974
79.9195633438667,0.0075698419787962
79.94829072105716,0.0041333170349689
79.97701809824763,0.0015195419039478
80.00574547543809,0.0166305679228942
80.03447285262855,0.0130935777205368
80.06320022981902,0.012349011688803
80.09192760700948,0.0270902383159604
80.12065498419993,0.0239902490264936
80.1493823613904,0.0259910020680978
80.17810973858086,0.0291313861634997
80.20683711577132,0.0289427107430194
80.23556449296179,0.0295357496502017
80.26429187015225,0.0295393702887896
80.29301924734271,0.0286823183212438
80.32174662453318,0.0191400799875987
80.35047400172364,0.0185767544025115
80.3792013789141,0.014213022344914
80.40792875610457,0.0122008025118687
80.43665613329503,0.0105753438298022
80.46538351048548,0.0083670644465585
80.49411088767594,0.0067700717469596
80.52283826486641,0.0063880822417277
80.55156564205687,0.0043813053709345
80.58029301924734,0.0045459605059368
80.6090203964378,0.0050290192681362
80.63774777362826,0.0050637024210966
80.66647515081873,0.0050023376239708
80.69520252800919,0.0049236576089194
80.72392990519965,0.0049151289213691
80.75265728239012,0.0051288914615945
80.78138465958058,0.0051182964941792
80.81011203677103,0.0048611893440104
80.8388394139615,0.0049272062729431
80.86756679115196,0.0049853326068108
80.89629416834242,0.0047647722193112
80.92502154553289,0.004875385561334
80.95374892272335,0.005047781072037
80.98247629991381,0.0050653275284815
81.01120367710428,0.0049730992160544
81.03993105429474,0.0049564029563108
81.0686584314852,0.0048910669856393
81.09738580867567,0.004744021373589
81.12611318586613,0.0047175724494149
81.15484056305658,0.0048121968230091
81.18356794024704,0.0046460065352823
81.21229531743751,0.0045052562413138
81.24102269462797,0.0046289608482941
81.26975007181844,0.0051354788244289
81.2984774490089,0.0048273005143375
81.32720482619936,0.0049029753448131
81.35593220338983,0.0050843226880083
81.38465958058029,0.0049334786497809
81.41338695777075,0.0050367004307779
81.44211433496122,0.0049431237798345
81.47084171215168,0.0049671493048834
81.49956908934213,0.0047966437419043
81.5282964665326,0.0049888618193318
81.55702384372306,0.0049395669367701
81.58575122091352,0.0046215824621903
81.61447859810399,0.0048775297765143
81.64320597529445,0.004825867995372
81.67193335248491,0.0049024984908515
81.70066072967538,0.0048433601550907
81.72938810686584,0.0046957575615645
81.7581154840563,0.0052264907752412
81.78684286124677,0.0055346399329919
81.81557023843723,0.0041319537216838
81.84429761562768,0.0047634435118982
81.87302499281815,0.0048765345494239
81.90175237000861,0.0045186539213219
81.93047974719907,0.0044225143633346
81.95920712438954,0.0044771924472381
81.98793450158,0.0043717473127612
82.01666187877046,0.004380126532406
82.04538925596093,0.0044760602459913
82.07411663315139,0.0044857930225699
82.10284401034185,0.0046539202226105
82.13157138753232,0.0047871833964011
82.16029876472278,0.004832788051617
82.18902614191323,0.0051797965642071
82.2177535191037,0.0051321988357102
82.24648089629416,0.0047480345002028
82.27520827348462,0.0048804248311649
82.30393565067509,0.0048473876894984
82.33266302786555,0.0051076170835801
82.36139040505601,0.0044904078170447
82.39011778224648,0.0044018676725856
82.41884515943694,0.0047192600641505
82.4475725366274,0.0047313758060368
82.47629991381787,0.0047647473828896
82.50502729100832,0.0047658533571059
82.53375466819878,0.004636234703197
82.56248204538925,0.0046215376984805
82.59120942257971,0.0047176769737999
82.61993679977017,0.0045666196145127
82.64866417696064,0.0045641156966484
82.6773915541511,0.0046797198283694
82.70611893134156,0.0047174770113416
82.73484630853203,0.004851509297346
82.76357368572249,0.0051709662327842
82.79230106291295,0.0054566549649291
82.82102844010342,0.0054503141769934
82.84975581729387,0.0053654924776021
82.87848319448433,0.0053554816006519
82.9072105716748,0.0053647631813626
82.93593794886526,0.0053016841499773
82.96466532605572,0.0051994153350496
82.99339270324619,0.005169314612698
83.02212008043665,0.004818843683297
83.05084745762711,0.0045117261482991
83.07957483481758,0.0047666120800598
83.10830221200804,0.0049274889491518
83.1370295891985,0.0052364105101534
83.16575696638897,0.0047613182429242
83.19448434357942,0.0051748386505347
83.22321172076988,0.0045567234356289
83.25193909796035,0.0050079845351821
83.28066647515081,0.005475748377009
83.30939385234127,0.0044782605747624
83.33812122953174,0.0042555738331788
83.3668486067222,0.0047661817492852
83.39557598391266,0.0050059114912723
83.42430336110313,0.0051223512384336
83.45303073829359,0.0047775344667918
83.48175811548406,0.004698701589185
83.51048549267452,0.0048617488467277
83.53921286986497,0.0049692133996024
83.56794024705543,0.0045945821520087
83.5966676242459,0.0052350030246634
83.62539500143636,0.0043729206413727
83.65412237862682,0.0060832873383868
83.68284975581729,0.0049462518453502
83.71157713300775,0.0045947484949088
83.74030451019821,0.0057848978501905
83.76903188738868,0.0050753628389584
83.79775926457914,0.0051479538043555
83.8264866417696,0.0048318142432206
83.85521401896007,0.0048107186650246
83.88394139615052,0.0048906609298616
83.91266877334098,0.005117697033768
83.94139615053145,0.023455900734597232
83.97012352772191,0.045660564315857494
83.99885090491237,0.047331930162903185
84.02757828210284,0.0349859037536384
84.0563056592933,0.0258702546140944
84.08503303648376,0.035068582578909
84.11376041367423,0.0325281901154691
84.14248779086469,0.0379388561372011
84.17121516805516,0.0395257295058006
84.19994254524562,0.0384579824050436
84.22866992243607,0.0318621965858577
84.25739729962653,0.0268698521221389
84.286124676817,0.0246931029083133
84.31485205400746,0.0193385687390918
84.34357943119792,0.0127449921286976
84.37230680838839,0.0105430251733221
84.40103418557885,0.008846078519149
84.42976156276931,0.0080178440417416
84.45848893995978,0.0077337720415748
84.48721631715024,0.006516515372719
84.5159436943407,0.0057437213114269
84.54467107153117,0.0056106953199075
84.57339844872162,0.0055446682493306
84.60212582591208,0.0052879081376579
84.63085320310255,0.0053718255566522
84.65958058029301,0.0054583620179388
84.68830795748347,0.005544950022436
84.71703533467394,0.0056132326501571
84.7457627118644,0.0054530518855221
84.77449008905486,0.0057239723285669
84.80321746624533,0.0056891715271067
84.83194484343579,0.0054298746330994
84.86067222062626,0.0044434754896878
84.88939959781672,0.0076442888287813
84.91812697500717,0.0032532914063167
84.94685435219763,0.0049409268284081
84.9755817293881,0.0051310562745502
85.00430910657856,0.0055254042001112
85.03303648376902,0.0058514537429299
85.06176386095949,0.0051035979144189
85.09049123814995,0.0053256242202336
85.11921861534042,0.0057771803352518
85.14794599253088,0.0056368059498666
85.17667336972134,0.0053849536475154
85.2054007469118,0.005375857223588
85.23412812410227,0.0052102795649826
85.26285550129272,0.0050866611011729
85.29158287848318,0.0051070076907375
85.32031025567365,0.0051266708643647
85.34903763286411,0.0049119857019436
85.37776501005457,0.0048187161828385
85.40649238724504,0.0048667395766546
85.4352197644355,0.0050188374101827
85.46394714162597,0.0050212491762031
85.49267451881643,0.0052125610564721
85.52140189600689,0.0050889369674416
85.55012927319736,0.0053611600594891
85.57885665038782,0.0053871985233452
85.60758402757827,0.0054992948413292
85.63631140476873,0.0050376160014037
85.6650387819592,0.005052901493197
85.69376615914966,0.005668593435803
85.72249353634012,0.0049424786407871
85.75122091353059,0.0047089120972967
85.77994829072105,0.0050359603769438
85.80867566791152,0.0049170042799086
85.83740304510198,0.0048880099116817
85.86613042229244,0.0050572463529631
85.8948577994829,0.0050574971622812
85.92358517667337,0.0053383503855738
85.95231255386382,0.0052073591992636
85.98103993105428,0.0053071840569657
86.00976730824475,0.0050096339942825
86.03849468543521,0.0053723931669393
86.06722206262567,0.0050424507895062
86.09594943981614,0.004996772849972
86.1246768170066,0.0052224655110505
86.15340419419707,0.0051585229860283
86.18213157138753,0.0052187368999273
86.210858948578,0.0051725296424479
86.23958632576846,0.0052108072933911
86.26831370295892,0.0052441963591902
86.29704108014937,0.005335312730496
86.32576845733983,0.0050629764564916
86.3544958345303,0.005171764526649
86.38322321172076,0.0049987127700943
86.41195058891122,0.0048660723120283
86.44067796610169,0.0048283607088401
86.46940534329215,0.0048419875411835
86.49813272048262,0.0047911099349001
86.52686009767308,0.0047228630776075
86.55558747486354,0.0047245554821568
86.584314852054,0.0047110005361506
86.61304222924447,0.0047650161838038
86.64176960643492,0.0047760401481898
86.67049698362538,0.0049254102390274
86.69922436081585,0.0051334443867048
86.72795173800631,0.0050800847763754
86.75667911519677,0.0047893991757606
86.78540649238724,0.0051000302305252
86.8141338695777,0.0051406383465638
86.84286124676817,0.0049765369722387
86.87158862395863,0.0050296424115962
86.9003160011491,0.0050990333184043
86.92904337833956,0.0048949619315783
86.95777075553002,0.0048529478940228
86.98649813272047,0.0049792803701795
87.01522550991093,0.004821896914799
87.0439528871014,0.0050766670206674
87.07268026429186,0.0049723629092476
87.10140764148233,0.0046479089414185
87.13013501867279,0.0046925713741515
87.15886239586325,0.0048262734453346
87.18758977305372,0.0052946377993207
87.21631715024418,0.0049957853582146
87.24504452743464,0.0050389657046203
87.27377190462511,0.0049109122018057
87.30249928181557,0.0050913283185315
87.33122665900602,0.005273603824625
87.35995403619648,0.0047227175639151
87.38868141338695,0.0047865183400336
87.41740879057741,0.00481234800151
87.44613616776788,0.0047869116008797
87.47486354495834,0.004963326606539
87.5035909221488,0.0048746511667046
87.53231829933927,0.004763396543508
87.56104567652973,0.0049329461197252
87.5897730537202,0.0049212206005461
87.61850043091066,0.0047036202754923
87.64722780810112,0.0048118004614098
87.67595518529157,0.0048726715732723
87.70468256248203,0.0049505661828276
87.7334099396725,0.0044118328198861
87.76213731686296,0.0046001535413334
87.79086469405343,0.0048920944388801
87.81959207124389,0.0046678317274238
87.84831944843435,0.0047176977192772
87.87704682562482,0.0045869476761205
87.90577420281528,0.0045955030358772
87.93450158000574,0.0050927721865856
87.96322895719621,0.0044588340854009
87.99195633438667,0.0046599846086136
88.02068371157712,0.0082931208565262
88.04941108876758,0.0120726990208603
88.07813846595805,0.0219738466249488
88.10686584314851,0.0218051536378683
88.13559322033898,0.0331194540798725
88.16432059752944,0.0336070008819697
88.1930479747199,0.0458859215474121
88.22177535191037,0.0399094486830793
88.25050272910083,0.0386009572665271
88.2792301062913,0.0384382617764698
88.30795748348176,0.0394036126033807
88.33668486067221,0.0265025576853016
88.36541223786267,0.0249597788311474
88.39413961505313,0.0137772501684327
88.4228669922436,0.0132308272819179
88.45159436943406,0.0092982049784751
88.48032174662453,0.012268130570078
88.50904912381499,0.0127546989069997
88.53777650100545,0.0028512747703042
88.56650387819592,0.0051428387810526
88.59523125538638,0.0046799044728635
88.62395863257684,0.0051271679208656
88.65268600976731,0.0048484692460181
88.68141338695776,0.0046197550653392
88.71014076414822,0.0047702760279774
88.73886814133868,0.0049935734656983
88.76759551852915,0.0047292805562075
88.79632289571961,0.0053667913384858
88.82505027291008,0.0055576766070277
88.85377765010054,0.0050662204802708
88.882505027291,0.0052060187267209
88.91123240448147,0.0064557584108322
88.93995978167193,0.0080935702256728
88.9686871588624,0.0005214851802336004
88.99741453605286,0.0059841645207474
89.02614191324331,0.0055922548068206
89.05486929043377,0.0122792948797119
89.08359666762424,0.0029626236212133
89.1123240448147,0.0051066382555078
89.14105142200516,0.0045154490333749
89.16977879919563,0.0046598073684038
89.19850617638609,0.0047460209546214
89.22723355357655,0.0046598073220033
89.25596093076702,0.0046487833947045
89.28468830795748,0.0048162039065048
89.31341568514794,0.0047912600449933
89.34214306233841,0.0047919277439008
89.37087043952886,0.0048431580256026
89.39959781671932,0.0048322317089337
89.42832519390979,0.0046697897561173
89.45705257110025,0.0047865734782688
89.48577994829071,0.0047647952095843
89.51450732548118,0.0047753630868721
89.54323470267164,0.0049509716116291
89.5719620798621,0.0048428562846127
89.60068945705257,0.0048492445107639
89.62941683424303,0.0050004590792252
89.6581442114335,0.0047096522242516
89.68687158862396,0.0053927189891636
89.71559896581441,0.0053173876014949
89.74432634300487,0.005066521461973
89.77305372019534,0.0048950873833354
89.8017810973858,0.0047722457985496
89.83050847457626,0.0051738911452057
89.85923585176673,0.005063045787344
89.88796322895719,0.0047796206204002
89.91669060614765,0.0046782070971895
89.94541798333812,0.0047315255183026
89.97414536052858,0.0044418254131094
90.00287273771904,0.0043329539121277
90.03160011490951,0.0056020041266913
90.06032749209996,0.0049057907076122
90.08905486929042,0.0053592895095275
90.11778224648089,0.004854888602853
90.14650962367136,0.0047666893735565
90.1752370008618,0.005861048848728
90.20396437805228,0.0052932070086375
90.23269175524274,0.0051413999860206
90.2614191324332,0.0050370019890376
90.29014650962368,0.0054256690669535
90.31887388681412,0.0044949598910646
90.3476012640046,0.0049029518555817
90.37632864119506,0.0048894384319118
90.40505601838552,0.0047938777286677
90.43378339557596,0.0047360036618128
90.46251077276644,0.0048129615339937
90.4912381499569,0.0057251690334267
90.51996552714736,0.0036043932380214
90.54869290433784,0.0050107376988704
90.57742028152828,0.004791469793141
90.60614765871875,0.0044245184669809
90.63487503590922,0.0044763186731092
90.66360241309968,0.0044726235148374
90.69232979029016,0.004416689807238
90.7210571674806,0.0044857846730602
90.74978454467106,0.0043692354209193
90.77851192186152,0.0046093886021298
90.807239299052,0.0045248136761124
90.83596667624244,0.0048521100418647
90.86469405343291,0.0046034906688948
90.89342143062338,0.0048594999113168
90.92214880781384,0.0043747327589005
90.9508761850043,0.0044445908984667
90.97960356219475,0.0048251649145571
91.00833093938525,0.0046108395975905
91.0370583165757,0.0044437558218453
91.06578569376616,0.0046472541605674
91.0945130709566,0.0048876623751676
91.12324044814709,0.0048793689661248
91.15196782533754,0.0050472780129907
91.180695202528,0.0048431124090626
91.20942257971846,0.0047598749833461
91.23814995690891,0.0043572726866135
91.2668773340994,0.0055121998729958
91.29560471128984,0.0051830228934238
91.32433208848032,0.0047825448371573
91.35305946567078,0.0047946515620579
91.38178684286125,0.0046406190530651
91.41051422005172,0.0050007226045206
91.43924159724216,0.0050455818569672
91.46796897443262,0.0052917326223349
91.49669635162309,0.0050319409201299
91.52542372881356,0.0042492898443057
91.554151106004,0.0054238390568256
91.58287848319448,0.0055250354160191
91.61160586038494,0.0053201385301639
91.6403332375754,0.0054990931438908
91.66906061476588,0.0059557809562579
91.69778799195632,0.0049883576923622
91.7265153691468,0.0050592720362407
91.75524274633726,0.0055747514201391
91.78397012352772,0.0053521005923106
91.81269750071816,0.0047568052340546
91.84142487790864,0.0049076644033947
91.8701522550991,0.0046076632528211
91.89887963228956,0.0051497369658747
91.92760700948004,0.0048491339626081
91.95633438667048,0.0013663251652931
91.98506176386095,0.0055930714005822
92.01378914105142,0.0129553776842464
92.04251651824188,0.0111739170694521
92.07124389543236,0.0123363804636402
92.0999712726228,0.0264555750854682
92.12869864981326,0.0296144856689353
92.15742602700372,0.0329531738918652
92.1861534041942,0.0327893569606574
92.21488078138464,0.0328341443827239
92.24360815857511,0.0340909621949263
92.27233553576558,0.0310415907571348
92.30106291295604,0.0341024545435139
92.3297902901465,0.0114410813475342
92.35851766733695,0.0163098540048792
92.38724504452745,0.0157032507495027
92.4159724217179,0.0112205210752774
92.44469979890836,0.0128612098996899
92.4734271760988,0.0058616278435734
92.50215455328927,0.0054697928180382
92.53088193047974,0.0036564040062779
92.5596093076702,0.0056767420511589
92.58833668486066,0.0052963536511582
92.61706406205111,0.0052667880225171
92.6457914392416,0.005045763349799
92.67451881643206,0.005051345115344
92.70324619362252,0.0050515849423955
92.73197357081298,0.0052345977801835
92.76070094800345,0.0053818097838734
92.78942832519392,0.0050613149173153
92.81815570238436,0.0050987553129744
92.84688307957482,0.0060530868060783
92.87561045676529,0.0044703742075403
92.90433783395576,0.0046233111281333
92.9330652111462,0.00488119209806
