timestamp,emg
0.0,0.0123228918207155
0.0287273771904625,0.0123681014866914
0.057454754380925,0.0125650716490736
0.0861821315713875,0.0129679862286919
0.11490950876185,0.0127518443815823
0.1436368859523125,0.0126731613392227
0.172364263142775,0.0130799733936028
0.2010916403332375,0.0134863382666969
0.2298190175237,0.0134896185333107
0.2585463947141626,0.0140837102924478
0.2872737719046251,0.0142197612091258
0.3160011490950876,0.0140843560943791
0.3447285262855501,0.0140244984293242
0.3734559034760126,0.0140413645340867
0.4021832806664751,0.0138923868246296
0.4309106578569376,0.0137049863522282
0.4596380350474001,0.0136338492281137
0.4883654122378627,0.0132353631586818
0.5170927894283252,0.0130759361530853
0.5458201666187876,0.0137900741734039
0.5745475438092502,0.0132903191923495
0.6032749209997127,0.0135387421873061
0.6320022981901752,0.0134322624301939
0.6607296753806376,0.0130335962639704
0.6894570525711002,0.0129958148392024
0.7181844297615627,0.0150360916189766
0.7469118069520252,0.0117373515809723
0.7756391841424878,0.012205710967564
0.8043665613329503,0.0130774754958045
0.8330939385234127,0.0127517313182278
0.8618213157138752,0.0127282064955642
0.8905486929043378,0.0131388218950798
0.9192760700948004,0.0132716443555044
0.9480034472852628,0.0121055789527208
0.9767308244757252,0.0149876583264062
1.0054582016661875,0.0141297762642696
1.0341855788566503,0.0135488750117892
1.062912956047113,0.013526626280487
1.0916403332375753,0.0133258197299375
1.1203677104280378,0.0096490750871181
1.1490950876185004,0.023895511425756067
1.1778224648089628,0.0398571745916314
1.2065498419994254,0.0315665689300761
1.235277219189888,0.0354478039352863
1.2640045963803503,0.037942427295898
1.292731973570813,0.0391753883610336
1.3214593507612753,0.0391114378742457
1.350186727951738,0.0380171468778723
1.3789141051422005,0.0333743158164695
1.4076414823326628,0.0256803472918087
1.4363688595231254,0.0232467865207141
1.465096236713588,0.0204439254786159
1.4938236139040504,0.016478912535207
1.522550991094513,0.0131878415073582
1.5512783682849756,0.0136172419203534
1.580005745475438,0.0136043048503882
1.6087331226659003,0.0135786932909966
1.637460499856363,0.0134995578586212
1.6661878770468257,0.0135108189041829
1.694915254237288,0.0134757357662252
1.7236426314277504,0.0130514784369802
1.752370008618213,0.0129282983306479
1.7810973858086756,0.0127527915898206
1.809824762999138,0.0126993733449724
1.8385521401896008,0.0129856846331812
1.8672795173800631,0.013341929880228
1.8960068945705255,0.0133654976998748
1.924734271760988,0.0133978928079285
1.9534616489514507,0.0133311095502771
1.982189026141913,0.0133993937267532
2.010916403332375,0.0135234355114663
2.0396437805228382,0.0135323814911678
2.0683711577133006,0.0132920982099869
2.097098534903763,0.0129571886889133
2.125825912094226,0.0131799007543362
2.154553289284688,0.0133010115109989
2.1832806664751505,0.013073838429521
2.2120080436656133,0.0131759029579559
2.2407354208560757,0.0129558921759317
2.269462798046538,0.0124783699433081
2.298190175237001,0.0122746821354856
2.3269175524274632,0.0122362022846233
2.3556449296179256,0.0123029405382506
2.3843723068083884,0.0122543376984793
2.4130996839988508,0.0118865729936526
2.441827061189313,0.0118461644538782
2.470554438379776,0.0117347208336014
2.4992818155702383,0.0117549790649228
2.5280091927607007,0.0120293868987803
2.5567365699511635,0.0110998557052381
2.585463947141626,0.0134125778078532
2.614191324332088,0.0117657006739747
2.6429187015225506,0.0116657748087328
2.6716460787130134,0.0123860169525135
2.700373455903476,0.0124655448162399
2.729100833093938,0.0124156971512366
2.757828210284401,0.0126676131720258
2.7865555874748633,0.0124074250966843
2.8152829646653257,0.0124458092538916
2.8440103418557885,0.0124572013745439
2.872737719046251,0.0122647681206859
2.9014650962367132,0.0130814652123579
2.930192473427176,0.0129132515182995
2.9589198506176384,0.0127993207189942
2.9876472278081008,0.0128428318960214
3.0163746049985636,0.0129028703266433
3.045101982189026,0.0126315803325627
3.0738293593794883,0.0127066360590835
3.102556736569951,0.0129373010017418
3.1312841137604135,0.01212703541811
3.160011490950876,0.0124568430223017
3.1887388681413387,0.0122703872647323
3.217466245331801,0.0118776274126965
3.2461936225222634,0.011859029822937
3.274920999712726,0.0121551983189479
3.303648376903189,0.0123654669550276
3.332375754093651,0.0122471513056693
3.3611031312841133,0.0120356277952204
3.389830508474576,0.0124039377997623
3.4185578856650385,0.0125894555616995
3.447285262855501,0.0126691323849423
3.4760126400459637,0.0128650881133784
3.504740017236426,0.0127169708478036
3.5334673944268884,0.0129724031607519
3.562194771617351,0.013153318586635
3.5909221488078136,0.0132942003318965
3.619649525998276,0.0126896237779136
3.648376903188739,0.0107001199772912
3.677104280379201,0.0141685388866561
3.705831657569663,0.0130683967884776
3.7345590347601263,0.0127211019804206
3.7632864119505887,0.0123909212419215
3.792013789141051,0.0117421859973742
3.820741166331514,0.0117464703142235
3.849468543521976,0.0121155308080127
3.8781959207124386,0.0110525092561187
3.9069232979029014,0.0116203860458306
3.935650675093364,0.0117656579925297
3.964378052283826,0.0114293657994809
3.993105429474289,0.0113568456084643
4.021832806664751,0.0118103723560519
4.050560183855214,0.0118199537703136
4.0792875610456765,0.0120058127217254
4.108014938236138,0.0120631713331503
4.136742315426601,0.0122460125268514
4.165469692617064,0.012001215248437
4.194197069807526,0.0120139436314461
4.222924446997989,0.0123462356694367
4.251651824188452,0.0120328884465961
4.2803792013789135,0.0118374922108243
4.309106578569376,0.0122724156289584
4.337833955759839,0.0117509921997279
4.366561332950301,0.0120551765229789
4.395288710140764,0.0120851484671217
4.424016087331227,0.0115735229775521
4.452743464521689,0.0117379591437241
4.481470841712151,0.0117395800532586
4.510198218902614,0.011768870914749
4.538925596093076,0.0123108354254607
4.567652973283539,0.0117676469711595
4.596380350474002,0.0121111985524969
4.625107727664464,0.0121588994158627
4.6538351048549265,0.0120037380912589
4.682562482045389,0.0122900847847885
4.711289859235851,0.012146588303931
4.740017236426314,0.0116684994944338
4.768744613616777,0.0116900718457754
4.797471990807239,0.0114333501904201
4.8261993679977016,0.0121978020548114
4.854926745188164,0.0125957153476615
4.883654122378626,0.0119322518000182
4.912381499569089,0.0119069880279921
4.941108876759552,0.0122912608610117
4.969836253950014,0.0126848484129725
4.998563631140477,0.0127955268326957
5.0272910083309394,0.0126766172065734
5.056018385521401,0.0121804111749786
5.084745762711864,0.0124671511300651
5.113473139902327,0.0119000347923774
5.142200517092789,0.0137239793214097
5.170927894283252,0.0251156555415441
5.199655271473714,0.0188788341714869
5.2283826486641765,0.020205839218194
5.257110025854639,0.0217182104616624
5.285837403045101,0.0221987044626039
5.314564780235564,0.0208975186318788
5.343292157426027,0.0285938527769645
5.372019534616489,0.0194206148397769
5.4007469118069515,0.0106765530785931
5.429474288997414,0.0158141613911069
5.458201666187876,0.0140305297693868
5.486929043378339,0.0154276003979644
5.515656420568802,0.0147238059922738
5.544383797759264,0.0133337901605358
5.573111174949727,0.0133560502544543
5.601838552140189,0.0122294593180753
5.630565929330651,0.012543272597959
5.659293306521114,0.0125314745408053
5.688020683711577,0.012688861708664
5.716748060902039,0.0122493029116187
5.745475438092502,0.0122523041438689
5.7742028152829645,0.0123447246472839
5.8029301924734265,0.0119676475286038
5.831657569663889,0.011729185016677
5.860384946854352,0.0118612929927342
5.889112324044814,0.0115865569692023
5.917839701235277,0.0113594992799454
5.94656707842574,0.0113366646386081
5.9752944556162015,0.0111001191083239
6.004021832806664,0.0115146615573392
6.032749209997127,0.0117329067762182
6.061476587187589,0.0116071338954638
6.090203964378052,0.0118469519243477
6.118931341568515,0.0120822509253645
6.147658718758977,0.0117792905620915
6.176386095949439,0.0117714799361913
6.205113473139902,0.0115205784342082
6.233840850330364,0.0114461517374527
6.262568227520827,0.0114512819331491
6.29129560471129,0.011093871390409
6.320022981901752,0.0115105095303023
6.3487503590922145,0.0095453592437438
6.377477736282677,0.014791218536763
6.406205113473139,0.0119426545261807
6.434932490663602,0.0112475186988393
6.463659867854065,0.0122291254280751
6.492387245044527,0.0122967233777875
6.52111462223499,0.012137781985916
6.549841999425452,0.0120670647460479
6.578569376615914,0.0117619138408965
6.607296753806377,0.0113777307437363
6.636024130996839,0.0110735285528959
6.664751508187302,0.0108782472487638
6.693478885377765,0.011000757947526
6.722206262568227,0.0111911307175436
6.750933639758689,0.011403213584345
6.779661016949152,0.0111589271909404
6.808388394139614,0.0109129774488306
6.837115771330077,0.0113048557405849
6.86584314852054,0.0116448827695052
6.894570525711002,0.0116674834502415
6.9232979029014645,0.0119262959163946
6.952025280091927,0.0116296572190229
6.980752657282389,0.0118249595779154
7.009480034472852,0.0113689809222056
7.038207411663315,0.0106711804285209
7.066934788853777,0.0112517767201815
7.09566216604424,0.0111012644186835
7.124389543234702,0.0106309770601751
7.153116920425164,0.0106843474340973
7.181844297615627,0.011178478674801
7.21057167480609,0.0107714907190938
7.239299051996552,0.0110381654146399
7.268026429187015,0.0111003979099189
7.296753806377477,0.0110452775093413
7.325481183567939,0.0111119117590429
7.354208560758402,0.0110354528871316
7.382935937948865,0.0109465831712114
7.411663315139327,0.0109974459935511
7.44039069232979,0.0108181224504511
7.469118069520253,0.0112325277478319
7.497845446710715,0.0114148111063684
7.526572823901177,0.0114241241965848
7.55530020109164,0.0112128819619953
7.584027578282102,0.0111343312128369
7.612754955472565,0.011199151785562
7.641482332663028,0.0110541954046969
7.67020970985349,0.0111569565392404
7.698937087043952,0.0111688107015569
7.727664464234415,0.0105007759772601
7.756391841424877,0.0113182644225295
7.78511921861534,0.0113488692160788
7.813846595805803,0.011549159571228
7.842573972996265,0.0111250896215903
7.871301350186728,0.0115359428924989
7.90002872737719,0.0112641492963967
7.928756104567652,0.0118315257033914
7.957483481758115,0.0122332196245681
7.986210858948578,0.0118061926891345
8.01493823613904,0.0113193575924979
8.043665613329502,0.0113689140304139
8.072392990519965,0.0114382943109029
8.101120367710427,0.0110920177015347
8.12984774490089,0.0109215884886419
8.158575122091353,0.0109067467263165
8.187302499281815,0.0103515952905785
8.216029876472277,0.0110389244226947
8.24475725366274,0.0116480717198344
8.273484630853202,0.0106463373691524
8.302212008043664,0.011036061054913
8.330939385234128,0.0125818027632143
8.35966676242459,0.0113616616910489
8.388394139615052,0.0115372277286826
8.417121516805516,0.0127454184613781
8.445848893995977,0.0118287875266181
8.47457627118644,0.0117523953202275
8.503303648376903,0.0119898975245118
8.532031025567365,0.0118273460845488
8.560758402757827,0.0117313672485878
8.58948577994829,0.011784782385683
8.618213157138753,0.0117950959567296
8.646940534329215,0.0114623142552716
8.675667911519678,0.011417081830089
8.70439528871014,0.0117589739424583
8.733122665900602,0.0115227259468559
8.761850043091066,0.0115488453766956
8.790577420281528,0.0115625826450995
8.81930479747199,0.010823273426411
8.848032174662453,0.0104892904570861
8.876759551852915,0.0124706918785485
8.905486929043377,0.0116045136692474
8.93421430623384,0.0109593288780586
8.962941683424303,0.0112008795879205
8.991669060614765,0.010915212894891
9.020396437805228,0.0110769812757285
9.04912381499569,0.0108123918485468
9.077851192186152,0.0116758771570037
9.106578569376616,0.0035509299159487
9.135305946567078,0.012871909199702
9.16403332375754,0.024942325923879
9.192760700948003,0.0297729246272367
9.221488078138464,0.0280497792410404
9.250215455328927,0.02888656567428
9.278942832519393,0.0285241543751176
9.307670209709851,0.0315424172644272
9.336397586900317,0.0305031689686326
9.36512496409078,0.0169044825169163
9.39385234128124,0.0184282508277052
9.422579718471702,0.020033774479123
9.451307095662166,0.0143365079323583
9.480034472852628,0.0114730544545253
9.50876185004309,0.0142507269582394
9.537489227233554,0.0109243373033908
9.566216604424016,0.011045376187967
9.594943981614476,0.0127428633844093
9.62367135880494,0.0120819503141922
9.652398735995405,0.0118245732719409
9.681126113185863,0.0122301498834895
9.709853490376329,0.012213034564831
9.73858086756679,0.0109171461987191
9.767308244757253,0.0111243735982989
9.796035621947716,0.011196062731535
9.824762999138178,0.0107753487166552
9.85349037632864,0.0103180923403074
9.882217753519104,0.0100772701116515
9.910945130709566,0.0101814745039472
9.939672507900028,0.010457506563957
9.968399885090491,0.0101941010197774
9.997127262280951,0.0102886711543175
10.025854639471415,0.010735795797068
10.05458201666188,0.0112328173946011
10.08330939385234,0.0114709382598814
10.112036771042805,0.011641781022089
10.140764148233266,0.0116815113026131
10.169491525423728,0.0114911394348628
10.19821890261419,0.011349075625322
10.226946279804654,0.0110209776044855
10.255673656995116,0.0109348185120688
10.284401034185578,0.0106710374625231
10.31312841137604,0.0105313500250406
10.341855788566503,0.0106565383446724
10.370583165756964,0.0099878838756084
10.399310542947427,0.0109248642487759
10.428037920137893,0.0116892593094607
10.456765297328351,0.0108627381011191
10.485492674518817,0.0112854385497062
10.51422005170928,0.0115685603934038
10.54294742889974,0.0110033018210241
10.571674806090202,0.0112374677713867
10.600402183280666,0.0113675283806378
10.629129560471128,0.0115568678214994
10.65785693766159,0.0113746511817475
10.686584314852054,0.0112545818813198
10.715311692042516,0.0114909913815091
10.744039069232976,0.0117437822935583
10.77276644642344,0.0114631767399592
10.801493823613905,0.0110866529408097
10.830221200804363,0.0117994178622477
10.858948577994829,0.0113319678522546
10.88767595518529,0.0105099709317923
10.916403332375753,0.0111621138601452
10.945130709566216,0.0111194528038739
10.973858086756678,0.0109141863838503
11.00258546394714,0.0112014528025955
11.031312841137604,0.0117909380487893
11.060040218328066,0.0115654587007825
11.088767595518528,0.0109565678486255
11.117494972708991,0.0114611522432475
11.146222349899451,0.0113738686557056
11.174949727089915,0.0113082128858544
11.20367710428038,0.01143661967812
11.23240448147084,0.0110330567766676
11.261131858661305,0.0111573865122451
11.289859235851766,0.0115736347226881
11.318586613042228,0.0120604874587702
11.34731399023269,0.0113478434316038
11.376041367423154,0.0113277261582213
11.404768744613616,0.0115085203254335
11.433496121804078,0.0113255236932489
11.462223498994542,0.0112508349392701
11.490950876185003,0.0111728270268967
11.519678253375464,0.0106579013426974
11.548405630565927,0.0101471170932399
11.577133007756393,0.0104907337116605
11.605860384946851,0.0103850929680106
11.634587762137317,0.0102580606192735
11.66331513932778,0.0104237602493887
11.69204251651824,0.0104621825190091
11.720769893708704,0.0104370429905639
11.749497270899166,0.0105959378586407
11.778224648089628,0.0103804538045703
11.806952025280092,0.0102727675407331
11.835679402470554,0.0110015959693709
11.864406779661016,0.0107643474660855
11.89313415685148,0.010533554403161
11.92186153404194,0.0107498081085126
11.950588911232405,0.0111550755539257
11.979316288422869,0.0111663374520599
12.008043665613329,0.0112843216280186
12.03677104280379,0.0114643281034147
12.065498419994254,0.0113369215244528
12.094225797184716,0.0115067791616334
12.122953174375178,0.011480146192044
12.151680551565642,0.0115284918092708
12.180407928756104,0.0114312015067041
12.209135305946566,0.0111300768373105
12.23786268313703,0.011070011296855
12.266590060327491,0.0106525047873078
12.295317437517951,0.0105843218293223
12.324044814708415,0.0103449354500575
12.35277219189888,0.0102533042752005
12.38149956908934,0.010400357291452
12.410226946279804,0.0101279014832832
12.438954323470266,0.0092429696761817
12.467681700660728,0.0123486796611616
12.496409077851192,0.0118125282267272
12.525136455041654,0.0090084034335743
12.553863832232116,0.0108019642246334
12.58259120942258,0.0109546467959615
12.611318586613042,0.0111019972312463
12.640045963803503,0.011441875699349
12.668773340993967,0.011526051622379
12.697500718184427,0.0112436031185878
12.726228095374893,0.0113683666436847
12.754955472565356,0.0116872927212797
12.783682849755817,0.011630663999607
12.81241022694628,0.0112258650895569
12.841137604136742,0.0108818207250204
12.869864981327204,0.0109041069248678
12.898592358517666,0.0109363703614132
12.92731973570813,0.0109345523391409
12.956047112898592,0.0109709106695701
12.984774490089054,0.0107629830973079
13.013501867279516,0.0106902667452796
13.04222924446998,0.0108554515965581
13.07095662166044,0.0097804609650556
13.099683998850905,0.0113688150972936
13.128411376041369,0.0112294363440625
13.157138753231829,0.0107917656076572
13.185866130422292,0.0142896919697218
13.214593507612754,0.0189934751999795
13.243320884803216,0.0231367871894257
13.272048261993678,0.0237760131780566
13.300775639184142,0.0265825052712473
13.329503016374604,0.0271174741606217
13.358230393565066,0.0293467765387488
13.38695777075553,0.0280751057873338
13.415685147945991,0.0215828680259702
13.444412525136451,0.0189778806555359
13.473139902326915,0.0195168059567479
13.50186727951738,0.017891554059121
13.53059465670784,0.0160158036178793
13.559322033898304,0.0141496203877345
13.588049411088766,0.0108674206728045
13.616776788279228,0.010441793959888
13.645504165469692,0.0105123807961153
13.674231542660154,0.0098067284059289
13.702958919850616,0.010906950788255
13.73168629704108,0.0108624788056316
13.76041367423154,0.0109272698286689
13.789141051422003,0.0107601011294502
13.817868428612467,0.0109781206985885
13.846595805802927,0.0109939624154418
13.875323182993393,0.0106221450964065
13.904050560183856,0.0102537319900526
13.932777937374317,0.0100237405456168
13.96150531456478,0.0098792084938344
13.990232691755242,0.0095937317333706
14.018960068945704,0.009142890041101
14.047687446136166,0.0088685982292804
14.07641482332663,0.0091098159871026
14.105142200517092,0.0090839335649743
14.133869577707554,0.0091577157562118
14.162596954898016,0.0094267228154177
14.19132433208848,0.009756525340386
14.22005170927894,0.0098815501013133
14.248779086469405,0.0101826132022179
14.277506463659869,0.010518958538434
14.306233840850329,0.0104790837915284
14.334961218040792,0.0105884060131419
14.363688595231254,0.0107741193305577
14.392415972421716,0.0107026728067562
14.42114334961218,0.0105353853975585
14.449870726802642,0.0109301096693603
14.478598103993104,0.0108270574987996
14.507325481183567,0.0108080061173041
14.53605285837403,0.010599828472935
14.564780235564491,0.010451873035288
14.593507612754957,0.0105950962656824
14.622234989945415,0.0107793630068491
14.65096236713588,0.0107427070229385
14.679689744326344,0.0102788322712517
14.708417121516804,0.0105533847489248
14.737144498707266,0.0112107851000175
14.76587187589773,0.0110552920310753
14.794599253088192,0.0115685089966407
14.823326630278654,0.0112408740538283
14.852054007469118,0.0107913445887619
14.88078138465958,0.0108754232468927
14.90950876185004,0.0110137266475261
14.938236139040503,0.0108190607575073
14.966963516230969,0.0109672014605679
14.995690893421427,0.0106282635658122
15.024418270611893,0.0103271602752783
15.053145647802356,0.0105323506874348
15.081873024992817,0.0105508413417058
15.11060040218328,0.0107416793502401
15.139327779373742,0.0104471442535557
15.168055156564204,0.0101149269399608
15.196782533754668,0.0103909090264737
15.22550991094513,0.0103143626867162
15.254237288135592,0.0103330064644489
15.282964665326055,0.0102849422940487
15.311692042516515,0.0100703550761863
15.34041941970698,0.0100066026434422
15.369146796897445,0.0100344857335937
15.397874174087905,0.0101818162548656
15.426601551278369,0.010326878685449
15.45532892846883,0.0103651395573891
15.484056305659292,0.0102818192667353
15.512783682849754,0.0104254723685148
15.541511060040218,0.010547334750227
15.57023843723068,0.0104824556976302
15.598965814421142,0.010621985874653
15.627693191611606,0.0109550655214837
15.656420568802067,0.0109706487702223
15.68514794599253,0.0107852604490906
15.713875323182991,0.0114710075390342
15.742602700373457,0.0106226129975498
15.771330077563915,0.0109181279058783
15.80005745475438,0.0108476460340336
15.828784831944844,0.0104875599462638
15.857512209135304,0.0105808625427888
15.886239586325768,0.0103469971322788
15.91496696351623,0.0100990668426323
15.943694340706692,0.0101193809031615
15.972421717897156,0.0102870193032014
16.001149095087616,0.0101737892844834
16.02987647227808,0.0100890515667935
16.058603849468543,0.0104787145491104
16.087331226659003,0.010523289767034
16.116058603849467,0.0103994624292772
16.14478598103993,0.0104439952264393
16.17351335823039,0.0103601363196362
16.202240735420855,0.010259722425507
16.23096811261132,0.0102574292734597
16.25969548980178,0.0104068475715578
16.288422866992242,0.0104167498061642
16.317150244182706,0.0099672722143132
16.345877621373166,0.0102316938907644
16.37460499856363,0.0104205783545621
16.403332375754093,0.010547597968393
16.432059752944554,0.0105869444455899
16.460787130135017,0.0104305497006292
16.48951450732548,0.0105188740421572
16.51824188451594,0.0105718427844533
16.546969261706405,0.010341086610828
16.57569663889687,0.0103568602932033
16.60442401608733,0.0109628447449824
16.633151393277792,0.0102394226595869
16.661878770468256,0.010119000768897
16.690606147658716,0.0109747241700815
16.71933352484918,0.0108661072952278
16.748060902039644,0.0106619481173252
16.776788279230104,0.010637762844217
16.805515656420567,0.0105751294960399
16.83424303361103,0.0095208654784022
16.86297041080149,0.011295330071846
16.891697787991955,0.0107074877986863
16.92042516518242,0.0100735468128012
16.94915254237288,0.010234415977599
16.977879919563343,0.0103172036698527
17.006607296753806,0.0103675018024007
17.035334673944266,0.0101866263959938
17.06406205113473,0.0102912336697211
17.092789428325194,0.0095154294383341
17.121516805515654,0.0098114916943987
17.150244182706118,0.0098074458327379
17.17897155989658,0.0104233614265196
17.20769893708704,0.0072551871378278
17.236426314277505,0.0082703750315404
17.26515369146797,0.01979974855667
17.29388106865843,0.0219193084637203
17.322608445848893,0.0219987061440841
17.351335823039356,0.0240089946821597
17.380063200229817,0.0239585733636941
17.40879057742028,0.0249174076872694
17.437517954610744,0.0265309507972259
17.466245331801204,0.0257187575377165
17.494972708991668,0.0271318088476851
17.52370008618213,0.015353009540493
17.55242746337259,0.0166758423122155
17.581154840563055,0.0206922099876119
17.60988221775352,0.0058001244350704
17.63860959494398,0.0099557122832631
17.667336972134443,0.0123212941015571
17.696064349324907,0.0101857655813113
17.724791726515367,0.0100674979355767
17.75351910370583,0.0101406544309931
17.782246480896294,0.0098484287640019
17.810973858086754,0.0110970040630662
17.839701235277218,0.010445678278109
17.86842861246768,0.0104202957906916
17.897155989658142,0.0104318104887082
17.925883366848606,0.0102323557394856
17.95461074403907,0.010320338472472
17.98333812122953,0.0102518288817393
18.012065498419993,0.009664072472182
18.040792875610457,0.0097722874378687
18.069520252800917,0.0095926737312439
18.09824762999138,0.0092974788921639
18.126975007181844,0.0096601664315314
18.155702384372304,0.0097454637364851
18.184429761562768,0.0100519090454202
18.213157138753232,0.0100352210746421
18.241884515943692,0.0099536346868832
18.270611893134156,0.009618957620654
18.29933927032462,0.0097113823469379
18.32806664751508,0.009816874446948
18.356794024705543,0.009969181455756
18.385521401896007,0.0101265961706999
18.414248779086467,0.0100202208954627
18.44297615627693,0.010515008351401
18.47170353346739,0.0106364671659423
18.500430910657855,0.0105067069662265
18.52915828784832,0.0104475355045583
18.557885665038786,0.0103259076596034
18.58661304222924,0.0108314223047702
18.615340419419702,0.0107494840450415
18.64406779661017,0.0104891582343716
18.67279517380063,0.010718477731943
18.701522550991093,0.0105040629257986
18.730249928181557,0.0105075084289332
18.758977305372017,0.0107679171951018
18.78770468256248,0.0108422825325377
18.816432059752945,0.0107753469904301
18.845159436943405,0.0107586054440832
18.87388681413387,0.0105787746382792
18.902614191324332,0.0101746700061213
18.931341568514792,0.0099867464473201
18.960068945705256,0.0097789895728565
18.98879632289572,0.0094991023372592
19.01752370008618,0.0094626375238283
19.046251077276644,0.0095250270797115
19.074978454467107,0.0097354420785053
19.103705831657567,0.0100402332307168
19.13243320884803,0.0102698863063728
19.161160586038495,0.0104725927500136
19.189887963228955,0.010599955798415
19.21861534041942,0.0107140757006497
19.24734271760988,0.0105700548609403
19.276070094800343,0.01052261037042
19.30479747199081,0.0100616366189153
19.33352484918127,0.0103014005546906
19.36225222637173,0.0108541697190831
19.390979603562194,0.0104601504705213
19.419706980752657,0.0106607719507222
19.44843435794312,0.010747602306759
19.47716173513358,0.0105884371221382
19.505889112324045,0.0105704589184506
19.534616489514505,0.0105818665254194
19.56334386670497,0.0101861978182427
19.592071243895433,0.0097779824494862
19.620798621085893,0.0100670193655357
19.649525998276356,0.0100286541352129
19.67825337546682,0.0101889076087429
19.70698075265728,0.010299738628452
19.735708129847744,0.0100971253119522
19.764435507038208,0.0100939938248927
19.793162884228668,0.0103576767865979
19.82189026141913,0.0102744857583252
19.850617638609595,0.0099636218052285
19.879345015800055,0.0097248634468442
19.90807239299052,0.0096811546179278
19.936799770180983,0.0097968589960931
19.965527147371443,0.0097963697295022
19.994254524561907,0.0099656264367799
20.02298190175237,0.0100282824301504
20.05170927894283,0.0098820133405301
20.080436656133298,0.0099241701333192
20.10916403332376,0.0099158686228155
20.137891410514214,0.009859906657273
20.16661878770468,0.0095299020538029
20.195346164895145,0.0091537858318682
20.224073542085605,0.0091343660144292
20.25280091927607,0.0091486869433632
20.281528296466533,0.0095153240245082
20.310255673656993,0.009440166705686
20.338983050847457,0.0091873154450172
20.36771042803792,0.0092921496394976
20.39643780522838,0.0095883601215009
20.425165182418844,0.0096001598049985
20.453892559609308,0.0093076632977091
20.482619936799768,0.0091775124929626
20.511347313990232,0.0092931997874464
20.540074691180696,0.009571541490622
20.568802068371156,0.0099138788520334
20.59752944556162,0.0098978064453321
20.62625682275208,0.0096095106090175
20.654984199942543,0.0099852545815935
20.683711577133007,0.0101234930315488
20.712438954323467,0.0107256758461536
20.74116633151393,0.0103246633072603
20.76989370870439,0.0098279974873294
20.798621085894855,0.0098796144518037
20.82734846308532,0.0099424755696899
20.856075840275786,0.0100316208632114
20.88480321746624,0.0097179982592305
20.913530594656702,0.0098478514532994
20.94225797184717,0.0087538916116915
20.97098534903763,0.0096229348878485
20.999712726228093,0.0101169717988868
21.028440103418557,0.009773945486682
21.057167480609017,0.0097528513663937
21.08589485779948,0.0101270520762195
21.114622234989945,0.0105843084936722
21.143349612180405,0.0112253904080297
21.17207698937087,0.016152302371937
21.200804366561332,0.0215362818262367
21.229531743751792,0.0170793621017263
21.258259120942256,0.0233336375378939
21.28698649813272,0.029926762496748666
21.31571387532318,0.0394424266987892
21.344441252513644,0.0388098642244133
21.373168629704107,0.0393590025914326
21.401896006894567,0.036992800631648
21.43062338408503,0.0385882117658051
21.459350761275495,0.0326163372157904
21.488078138465955,0.0172560707634926
21.51680551565642,0.0099890959292224
21.54553289284688,0.0115880431686126
21.574260270037342,0.0118557114869635
21.60298764722781,0.0110708353728869
21.63171502441827,0.0113685338347221
21.66044240160873,0.0115961439234984
21.689169778799194,0.0105281825131527
21.717897155989657,0.0108863094116245
21.74662453318012,0.01110201049807
21.77535191037058,0.0112439426912197
21.804079287561045,0.0114430342776945
21.832806664751505,0.0110794810670765
21.86153404194197,0.0112823823036564
21.890261419132433,0.0114464338957456
21.918988796322893,0.0107954099793549
21.947716173513356,0.0111547784321978
21.97644355070382,0.0103972205768053
22.00517092789428,0.0091375223010325
22.033898305084744,0.0100450243857375
22.062625682275208,0.0114557042861398
22.091353059465668,0.0086288180799068
22.12008043665613,0.0093357231884704
22.148807813846595,0.0109029650411897
22.177535191037055,0.0098855323024387
22.20626256822752,0.0098682388132051
22.234989945417983,0.0101295982604921
22.263717322608443,0.0098288417110964
22.292444699798907,0.0099164445283969
22.32117207698937,0.0097380590361637
22.34989945417983,0.0090250440432121
22.378626831370298,0.0099589226546719
22.40735420856076,0.0096413411631794
22.436081585751214,0.0096949627309966
22.46480896294168,0.0096342612923009
22.493536340132145,0.0098997614126618
22.522263717322605,0.0102907111568665
22.55099109451307,0.010427250299177
22.579718471703533,0.0104715271627699
22.608445848893993,0.0103935265892755
22.637173226084457,0.0103505957221274
22.66590060327492,0.010283331128071
22.69462798046538,0.0103211193275437
22.723355357655844,0.0100286169887827
22.752082734846308,0.0097326623322618
22.780810112036768,0.0090981959942737
22.809537489227232,0.0096655723798529
22.838264866417695,0.0101371213463769
22.866992243608156,0.0096770868811879
22.89571962079862,0.0100389777967401
22.924446997989083,0.0101069649268479
22.953174375179543,0.0098876144856778
22.981901752370007,0.009934327270028
23.01062912956047,0.0105584491108659
23.03935650675093,0.0104692871252256
23.06808388394139,0.0083271288950175
23.096811261131855,0.0091632163769601
23.12553863832232,0.0091546758803616
23.154266015512786,0.0087171463626751
23.18299339270325,0.0089424992254188
23.211720769893702,0.0089644685789781
23.24044814708417,0.0094908281130146
23.269175524274633,0.0095128733379972
23.297902901465093,0.0100906503313077
23.326630278655557,0.0093698116261944
23.35535765584602,0.0094844522673693
23.38408503303648,0.0096207799200439
23.412812410226945,0.009464704158392
23.44153978741741,0.0093355655746671
23.47026716460787,0.0095193074605318
23.498994541798332,0.0096159211347283
23.527721918988796,0.0099979625832504
23.556449296179256,0.010085012929064
23.58517667336972,0.0102081400867952
23.613904050560183,0.0105572362841821
23.642631427750644,0.0106467694472195
23.671358804941107,0.0104118791486551
23.70008618213157,0.0103191351087867
23.72881355932203,0.0101685146551093
23.757540936512495,0.0100571396502629
23.78626831370296,0.0101514579586577
23.81499569089342,0.0100480900406509
23.84372306808388,0.0099117135018447
23.872450445274342,0.0098868473878901
23.90117782246481,0.0099512359891401
23.92990519965527,0.0098350742281165
23.958632576845737,0.010122229756248
23.987359954036194,0.0105463184785622
24.016087331226657,0.009211026758567
24.04481470841712,0.0097485441433318
24.07354208560758,0.010013936019586
24.102269462798045,0.0098822951212138
24.13099683998851,0.0102591006342913
24.15972421717897,0.0096287534107149
24.188451594369432,0.009807384014955
24.217178971559896,0.0091639338847919
24.245906348750356,0.0100308524901968
24.27463372594082,0.0101608284478693
24.303361103131284,0.0097180428357541
24.332088480321744,0.010153397313245
24.360815857512208,0.0101796360064884
24.38954323470267,0.010565739441426
24.41827061189313,0.0103333915118532
24.446997989083595,0.0108589416048406
24.47572536627406,0.010620483369134
24.50445274346452,0.0104529589130756
24.533180120654983,0.0104655082765135
24.561907497845446,0.0101121000697646
24.590634875035907,0.0103637999172597
24.61936225222637,0.0104401512231664
24.64808962941683,0.0099417885013186
24.676817006607298,0.0096070865599131
24.70554438379776,0.0105052241220607
24.73427176098822,0.008809598225217
24.76299913817868,0.0088321224688526
24.791726515369145,0.0094187083880097
24.82045389255961,0.0084362350085875
24.84918126975007,0.0084498629586263
24.877908646940533,0.0086801126115079
24.906636024130997,0.0089827102807046
24.935363401321457,0.0091126383603685
24.96409077851192,0.0093332740424879
24.992818155702384,0.0095947166905959
25.021545532892844,0.009275480149668
25.050272910083308,0.0099528069037072
25.07900028727377,0.0101626892293062
25.10772766446423,0.0099495930052399
25.136455041654695,0.0100001117690479
25.16518241884516,0.0117068636784145
25.19390979603562,0.0157431918617537
25.222637173226083,0.0190003623955316
25.251364550416547,0.0193073373845061
25.280091927607007,0.0207084496627184
25.30881930479747,0.0221768501098454
25.337546681987934,0.0218810066436319
25.36627405917839,0.022033638922661
25.395001436368855,0.0193248191908801
25.42372881355932,0.0179951405998281
25.452456190749785,0.0224028780217138
25.48118356794025,0.0239070950016429
25.50991094513071,0.0227575904559158
25.53863832232117,0.0219825824137058
25.567365699511633,0.0216980663831348
25.596093076702097,0.0217465030834115
25.624820453892557,0.0220193177008901
25.65354783108302,0.0209679520944496
25.682275208273484,0.012728629213258
25.711002585463945,0.0082693820313622
25.73972996265441,0.0097265315975795
25.768457339844872,0.01004707755934
25.797184717035332,0.0096687335317536
25.825912094225796,0.009887640537235
25.85463947141626,0.0099403115683714
25.88336684860672,0.0098203366320693
25.912094225797183,0.0100197830344218
25.940821602987647,0.0100724204474962
25.969548980178107,0.0100503053260575
25.99827635736857,0.0100614856388494
26.027003734559035,0.0100978928099596
26.055731111749495,0.0103183684597672
26.08445848893996,0.0103259641131417
26.113185866130426,0.0103521808897535
26.14191324332088,0.0102517326905965
26.170640620511342,0.0098321866917913
26.19936799770181,0.0099094021610397
26.22809537489227,0.0110518743720508
26.256822752082737,0.0103524806191801
26.285550129273197,0.0099513809069771
26.314277506463657,0.0103609742239073
26.34300488365412,0.0104674447984936
26.371732260844585,0.0104170333805373
26.400459638035045,0.0110998969787992
26.42918701522551,0.0106316148198309
26.457914392415972,0.0095645594778838
26.486641769606432,0.0100635342362485
26.515369146796896,0.0102924096122132
26.544096523987356,0.00990298630232
26.57282390117782,0.0095807261254912
26.601551278368284,0.0103747733806782
26.630278655558744,0.0089297495996726
26.659006032749208,0.0098347093583947
26.68773340993967,0.0100362237367689
26.71646078713013,0.0095993147455486
26.745188164320595,0.0094948102731419
26.77391554151106,0.0098654907316796
26.80264291870152,0.0095656739077107
26.831370295891983,0.0094077123170204
26.860097673082446,0.0093195604324099
26.888825050272903,0.009190224210119
26.91755242746337,0.0094362090753018
26.94627980465383,0.0093622181009074
26.975007181844298,0.0089559173371369
27.00373455903476,0.0092673351580672
27.03246193622522,0.0093086698677769
27.06118931341568,0.0091865524181248
27.089916690606145,0.0092050707187041
27.11864406779661,0.0094206546751626
27.14737144498707,0.0092178926291576
27.176098822177533,0.0091600079704429
27.204826199367997,0.0101944180228033
27.233553576558457,0.010043373590066
27.26228095374892,0.0098803411362654
27.291008330939384,0.00962730161246
27.319735708129844,0.0099699137590021
27.348463085320308,0.0096836991767443
27.37719046251077,0.0100790956180209
27.40591783970123,0.0098251003053413
27.434645216891695,0.0096573691088642
27.46337259408216,0.0097789795292963
27.49209997127262,0.0097423403596194
27.520827348463083,0.0097297164023855
27.549554725653547,0.0100824989045393
27.578282102844007,0.0097334949181049
27.60700948003447,0.0093139378221922
27.635736857224934,0.0095961206254249
27.66446423441539,0.0094607626809302
27.693191611605855,0.0095480717136645
27.72191898879632,0.0096214636172586
27.750646365986785,0.009515958163299
27.77937374317725,0.0092953172092633
27.80810112036771,0.0095119934700777
27.83682849755817,0.009842292607013
27.865555874748633,0.0098138871932554
27.894283251939097,0.0096413927202888
27.923010629129557,0.0096355504883071
27.95173800632002,0.0097126593619951
27.980465383510484,0.009742687981948
28.009192760700945,0.0098139580510703
28.03792013789141,0.0099581755611541
28.066647515081872,0.0100680413022315
28.095374892272332,0.0097768258046706
28.124102269462796,0.0096619842573076
28.15282964665326,0.0097752487678995
28.18155702384372,0.0098233351467904
28.210284401034183,0.0099243116099893
28.239011778224647,0.0103428491069562
28.267739155415107,0.0099345158311546
28.29646653260557,0.0099766354873865
28.325193909796035,0.0104085963462197
28.353921286986495,0.010347330488068
28.38264866417696,0.0098679486810316
28.411376041367426,0.0109065550782965
28.44010341855788,0.0103695607338793
28.468830795748342,0.0103416974641393
28.49755817293881,0.0105773086636425
28.52628555012927,0.0102689405076717
28.555012927319737,0.0104866109870144
28.583740304510197,0.0102440918208232
28.612467681700657,0.010158436528063
28.64119505889112,0.0104401167335651
28.669922436081585,0.0104536178346046
28.698649813272045,0.0104434270057075
28.72737719046251,0.0101923568141739
28.756104567652972,0.0103459449651377
28.784831944843432,0.0099299453724885
28.813559322033896,0.0092670155693098
28.84228669922436,0.0093872834772705
28.87101407641482,0.0095835655000695
28.899741453605284,0.0097263634506011
28.928468830795747,0.009753014083854
28.957196207986208,0.0095294858734627
28.98592358517667,0.0096407208341492
29.014650962367135,0.0097929236796829
29.043378339557595,0.0098989983826693
29.07210571674806,0.0098715361388565
29.10083309393852,0.0095500543273076
29.129560471128983,0.0099560337531821
29.158287848319446,0.0101874693742116
29.18701522550991,0.0074036906736169
29.21574260270037,0.0108787160639208
29.24446997989083,0.0198471219520379
29.273197357081298,0.0218525214425083
29.30192473427176,0.0225631825155299
29.33065211146222,0.0240857492340581
29.359379488652685,0.0249572855123983
29.388106865843145,0.0247941355430943
29.41683424303361,0.0252577410902277
29.445561620224073,0.0227583937434761
29.474288997414533,0.0164064391646595
29.503016374604996,0.0159366916919051
29.53174375179546,0.0162112302303943
29.56047112898592,0.0072555960238236
29.589198506176384,0.0085024830048863
29.617925883366848,0.0102120063633384
29.646653260557308,0.0096508364684773
29.67538063774777,0.0094826558335865
29.704108014938235,0.0095091800319829
29.732835392128695,0.0097371958501123
29.76156276931916,0.0097155497663388
29.790290146509623,0.0097942114000134
29.819017523700083,0.0101082065859237
29.847744900890547,0.010209404607803
29.87647227808101,0.0095510546778314
29.90519965527147,0.0096886301844263
29.933927032461938,0.0099007417643901
29.9626544096524,0.0095358091390461
29.991381786842854,0.0094390506864046
30.02010916403332,0.0093989890411834
30.048836541223785,0.0091655288741438
30.07756391841425,0.0097782541717413
30.10629129560471,0.0093127735440805
30.135018672795173,0.0090384044491227
30.163746049985633,0.0093623060283875
30.192473427176097,0.0093945701896281
30.22120080436656,0.0091725867439942
30.24992818155702,0.0100243061863547
30.278655558747484,0.0097007125995237
30.307382935937948,0.009670315058272
30.336110313128408,0.0104221974190964
30.364837690318872,0.009951438240112
30.393565067509336,0.0091543301677121
30.422292444699796,0.0098951637914396
30.45101982189026,0.0098206183261213
30.479747199080723,0.0094772141928239
30.508474576271183,0.0095884203308135
30.537201953461647,0.0096791600777428
30.56592933065211,0.0095545195873304
30.59465670784257,0.0096318079955537
30.623384085033035,0.0093994491059724
30.6521114622235,0.0090353097654701
30.68083883941396,0.0091794842050075
30.709566216604426,0.0092174422019512
30.73829359379489,0.0091026335606565
30.767020970985342,0.0096680394182559
30.79574834817581,0.0096473514442334
30.824475725366273,0.0094375923078315
30.853203102556733,0.009832934463972
30.881930479747197,0.0097025621227734
30.91065785693766,0.011910663585153
30.93938523412812,0.0090074778161568
30.968112611318585,0.0085576824706732
30.99683998850905,0.0103867248305601
31.02556736569951,0.0097857639391272
31.054294742889972,0.008935273515001
31.083022120080436,0.0095769431699453
31.111749497270896,0.0097701441260952
31.14047687446136,0.0094454961446333
31.169204251651824,0.0094505555888163
31.197931628842284,0.009329681223944
31.226659006032747,0.0089591006833876
31.25538638322321,0.0091701230205241
31.28411376041367,0.0089140294103106
31.312841137604135,0.008851388284212
31.3415685147946,0.0091282390823855
31.37029589198506,0.0095287222057595
31.39902326917552,0.0098657767205549
31.427750646365983,0.0100837587943727
31.456478023556446,0.0099261585356118
31.48520540074691,0.0099472523796665
31.513932777937377,0.0102738595550956
31.54266015512783,0.0105197268114717
31.571387532318298,0.0102337507549497
31.60011490950876,0.0097779700283977
31.62884228669922,0.0096652454387949
31.657569663889685,0.0094987411142275
31.68629704108015,0.0092364226904055
31.71502441827061,0.009234778152084
31.743751795461073,0.0090727210414509
31.772479172651536,0.008644289034117
31.801206549841996,0.009089328446546
31.82993392703246,0.0088378385334591
31.858661304222924,0.0087052489990119
31.887388681413384,0.0091307993184725
31.916116058603848,0.0092071780864248
31.94484343579431,0.008785383410968
31.97357081298477,0.0097613916859199
32.00229819017523,0.0094276356629444
32.031025567365695,0.0089130657834633
32.05975294455616,0.009044665262475
32.08848032174662,0.0095189434757308
32.11720769893709,0.0097531709524287
32.14593507612755,0.0100329793479808
32.17466245331801,0.0104946907366455
32.20338983050847,0.0103154943997407
32.232117207698934,0.0100913404066527
32.2608445848894,0.010748952111128
32.28957196207986,0.0103151864128095
32.318299339270325,0.0101290633919863
32.34702671646078,0.0099009319693199
32.375754093651246,0.0094272149485266
32.40448147084171,0.0093770473760987
32.43320884803217,0.0095688769153826
32.46193622522264,0.0093217051820344
32.4906636024131,0.0098057640946047
32.51939097960356,0.0098709157365244
32.54811835679402,0.0097076550322745
32.576845733984484,0.0096927989799146
32.60557311117495,0.009583014028855
32.63430048836541,0.0093180259937676
32.663027865555875,0.0091097684827949
32.69175524274633,0.0091307065609056
32.720482619936796,0.0089500315786261
32.74920999712726,0.0084997064154779
32.77793737431772,0.0086800404362721
32.80666475150819,0.0085915216380339
32.83539212869865,0.0086955814816344
32.86411950588911,0.008883274980255
32.89284688307957,0.0088615283632165
32.921574260270035,0.0089504330430955
32.9503016374605,0.0092000179603586
32.97902901465096,0.0093082821752941
33.007756391841426,0.0094706475929259
33.03648376903188,0.0095229793824109
33.065211146222346,0.0095251886924327
33.09393852341281,0.0095212009780825
33.12266590060327,0.0094984996625378
33.15139327779374,0.0094435970595174
33.1801206549842,0.0093795170361002
33.20884803217466,0.0095399066202885
33.23757540936512,0.0098463189438442
33.266302786555585,0.0099224450750963
33.29503016374605,0.0102506389397791
33.32375754093651,0.0113514713520235
33.352484918126976,0.013461099434783
33.38121229531743,0.0159307342621185
33.409939672507896,0.0167443857085805
33.43866704969836,0.0164273271267733
33.46739442688882,0.0164258447161383
33.49612180407929,0.015510487402007
33.52484918126975,0.0130581585178654
33.55357655846021,0.011873183627792466
33.58230393565067,0.0069712392884283
33.611031312841135,0.0098984976652164
33.6397586900316,0.0093748741770994
33.66848606722206,0.0100022691490479
33.697213444412526,0.0096498844065278
33.72594082160298,0.0098514496356556
33.754668198793446,0.0095354504433588
33.78339557598391,0.0100871287963808
33.812122953174374,0.0088315765108084
33.84085033036484,0.0087685036966605
33.8695777075553,0.0090987599699469
33.89830508474576,0.008963952845333
33.92703246193622,0.0096370404820322
33.955759839126685,0.0095142268932323
33.98448721631715,0.0093448979597062
34.01321459350761,0.0101426264642453
34.041941970698076,0.0089251658903534
34.07066934788853,0.0086444883432071
34.099396725078996,0.0098132674913447
34.12812410226946,0.0096590563244504
34.156851479459924,0.0093292301729795
34.18557885665039,0.0094516584468922
34.21430623384085,0.0090524798564695
34.24303361103131,0.0099059385610888
34.27176098822177,0.0099165774014542
34.300488365412235,0.0097473014366201
34.3292157426027,0.0097387215220416
34.35794311979316,0.0096075020987414
34.386670496983626,0.0097997311190761
34.41539787417408,0.0099379867417554
34.44412525136455,0.0098784076917119
34.47285262855501,0.0097865834798195
34.501580005745474,0.0095239322705538
34.53030738293594,0.0091880780557089
34.5590347601264,0.0093198107371761
34.58776213731686,0.0099356214440399
34.61648951450732,0.0092169301919937
34.645216891697785,0.0089728241558792
34.67394426888825,0.0078860211869546
34.70267164607871,0.0098735516111257
34.73139902326918,0.0104096034502557
34.76012640045963,0.0088127935985791
34.7888537776501,0.0094343080506894
34.81758115484056,0.0097342803200266
34.846308532031024,0.0095228289335808
34.87503590922149,0.0097109361191994
34.90376328641195,0.0099499902381199
34.93249066360241,0.009943820400857
34.96121804079287,0.0098534634398468
34.989945417983336,0.01010906200043
35.0186727951738,0.0104448384633079
35.04740017236426,0.0098897947661351
35.07612754955473,0.0100447407800476
35.10485492674518,0.0100713493360672
35.13358230393565,0.0099008789405723
35.16230968112611,0.0103051111532387
35.191037058316574,0.0106243093940477
35.21976443550704,0.0101123312590086
35.2484918126975,0.0091492866586754
35.27721918988796,0.0108914686438648
35.30594656707842,0.011716863577111
35.334673944268886,0.0071011434040851
35.36340132145935,0.0097025906856004
35.39212869864981,0.0096489763808508
35.42085607584027,0.009727679133193
35.44958345303073,0.009446793635104
35.4783108302212,0.0099004674378248
35.50703820741166,0.0099630410583552
35.535765584602125,0.0099962966549876
35.56449296179259,0.0103193790849978
35.593220338983045,0.0101953907623859
35.62194771617351,0.0097763656923143
35.65067509336397,0.0097930599868735
35.679402470554436,0.0098093218343877
35.7081298477449,0.0097267904933386
35.73685722493536,0.0096681014591246
35.76558460212582,0.0093793655977989
35.794311979316284,0.0096098087210219
35.82303935650675,0.009672850867901
35.85176673369721,0.0093739568781209
35.880494110887675,0.0096460964414943
35.90922148807814,0.0092811772758974
35.937948865268595,0.0100111598262665
35.96667624245906,0.0095085582981853
35.99540361964952,0.0094150766793326
36.024130996839986,0.0095941450484806
36.05285837403045,0.0086405816981959
36.08158575122091,0.0099244567224634
36.11031312841137,0.0093299260269008
36.139040505601834,0.0087742866529653
36.1677678827923,0.0088144861779599
36.19649525998276,0.008989289823469
36.225222637173225,0.0092833016477688
36.25395001436369,0.0097132618077077
36.282677391554145,0.010192506720378
36.31140476874461,0.0100226771548486
36.34013214593507,0.0097247248862603
36.368859523125536,0.0099323515770735
36.397586900316,0.0098795771201127
36.426314277506464,0.0098609406730912
36.45504165469692,0.0096151697687835
36.483769031887384,0.0093375857726223
36.51249640907785,0.0092761422830531
36.54122378626831,0.0091736509317567
36.569951163458775,0.0090861189216441
36.59867854064924,0.0091230846952814
36.627405917839695,0.0089567799359309
36.65613329503016,0.0088100318034895
36.68486067222062,0.0087693002306407
36.713588049411086,0.0091681962637342
36.74231542660155,0.0089301411893571
36.771042803792014,0.0088473738731942
36.79977018098247,0.009337667467431
36.828497558172934,0.0087035139381734
36.8572249353634,0.0084781656990955
36.88595231255386,0.0094665294425875
36.914679689744325,0.00927820769367
36.94340706693479,0.0090309416798676
36.972134444125246,0.0089445502975244
37.00086182131571,0.0086464736291182
37.02958919850617,0.0089540956157858
37.05831657569664,0.0089973848621174
37.0870439528871,0.0088637422747633
37.11577133007757,0.009512555132133
37.14449870726802,0.0093086119440519
37.17322608445848,0.0097121452675101
37.20195346164895,0.0094291409679772
37.23068083883941,0.0104190015714141
37.259408216029875,0.0064538163310634
37.28813559322034,0.0081963400256231
37.3168629704108,0.0180706294183493
37.34559034760126,0.0160224552192924
37.37431772479172,0.0174236409205487
37.40304510198219,0.0179376372383372
37.43177247917265,0.0191010002080551
37.460499856363114,0.0198128290193159
37.48922723355357,0.019364113213725
37.517954610744034,0.0198550619605087
37.5466819879345,0.0130035600825405
37.57540936512496,0.014387178779366
37.604136742315426,0.0165452160831383
37.63286411950589,0.0097457116784219
37.661591496696346,0.0097492431490468
37.69031887388681,0.0103946992409768
37.71904625107727,0.0098954856345825
37.74777362826774,0.0092052969710072
37.7765010054582,0.0089166148880414
37.805228382648664,0.0090399619879725
37.83395575983912,0.0089409197314481
37.862683137029585,0.0088350399669581
37.89141051422005,0.0089667627592602
37.92013789141051,0.009021573031971
37.948865268600976,0.0090537508801283
37.97759264579144,0.0092897340322408
38.006320022981896,0.0088608724482936
38.03504740017236,0.0095249750533506
38.06377477736282,0.0104057716530571
38.09250215455329,0.0092936547558767
38.12122953174375,0.0092562910696555
38.149956908934215,0.009368926634336
38.17868428612467,0.0091627005471539
38.207411663315135,0.0090280593122088
38.2361390405056,0.0084693222159444
38.26486641769606,0.0084927617662779
38.293593794886526,0.0080700629951465
38.32232117207699,0.0080667420823569
38.351048549267446,0.0085448531664107
38.37977592645791,0.008270310595058
38.408503303648374,0.0079138774924579
38.43723068083884,0.0090609358778107
38.4659580580293,0.0086550400044019
38.494685435219765,0.0087609695014499
38.52341281241022,0.0088282103289477
38.552140189600685,0.0080544769547179
38.58086756679115,0.0097551137628586
38.60959494398161,0.0093550422942371
38.63832232117208,0.0097115298964619
38.66704969836254,0.0092482254798392
38.69577707555299,0.0091559738630474
38.72450445274346,0.0095887650354682
38.75323182993392,0.0098310978748669
38.78195920712439,0.0088944842921254
38.81068658431485,0.0101352179727475
38.839413961505315,0.0092178474976521
38.86814133869577,0.0084382265454433
38.896868715886235,0.0094769347345694
38.9255960930767,0.0091333963767136
38.95432347026716,0.0087717684455842
38.983050847457626,0.00866230958733
39.01177822464809,0.0084920881117472
39.04050560183855,0.008720700151655
39.06923297902901,0.0090375931130773
39.097960356219474,0.0084586363896779
39.12668773340994,0.0087861546029969
39.1554151106004,0.0088281919656204
39.184142487790865,0.0090595615967515
39.21286986498132,0.0091836277212538
39.241597242171785,0.0092917155677527
39.27032461936225,0.0093046030331428
39.29905199655271,0.0093213184108858
39.32777937374318,0.0090980592844516
39.35650675093364,0.0090116119407022
39.3852341281241,0.0090145393651679
39.41396150531456,0.0083127937020675
39.442688882505024,0.0088456996264647
39.47141625969549,0.0089943917161808
39.50014363688595,0.0086390165308866
39.528871014076415,0.0089577077349486
39.55759839126687,0.0087450974485984
39.586325768457336,0.0090312734879576
39.6150531456478,0.009002021939949
39.64378052283826,0.0089237184748388
39.67250790002873,0.0086806649179169
39.70123527721919,0.0090486717212563
39.72996265440965,0.0086367900968746
39.75869003160011,0.008807516778238
39.787417408790574,0.0091795549994489
39.81614478598104,0.0092206237687642
39.8448721631715,0.0091574281415971
39.873599540361965,0.009251142744508
39.90232691755242,0.0092548566637481
39.931054294742886,0.0089101689191822
39.95978167193335,0.009081556722826
39.98850904912381,0.0091338011552301
40.01723642631428,0.0086703017145313
40.04596380350474,0.0086638220736714
40.0746911806952,0.0083188094929315
40.10341855788566,0.0083850835071931
40.132145935076124,0.008710085333809
40.16087331226659,0.008373776253706
40.18960068945705,0.0086182678189597
40.21832806664752,0.0089728404812839
40.24705544383797,0.0084417428367749
40.27578282102843,0.0086181604944653
40.3045101982189,0.0088443491737321
40.33323757540936,0.0088743216155011
40.36196495259983,0.0088682753539204
40.39069232979029,0.0088759865200933
40.41941970698075,0.0089621077224507
40.44814708417121,0.0091128839696691
40.476874461361675,0.0090498898914253
40.50560183855214,0.0090817039337154
40.5343292157426,0.0091486117702328
40.563056592933066,0.0089754743925697
40.59178397012352,0.0089300103243092
40.620511347313986,0.0089084296034819
40.64923872450445,0.0087023942889508
40.67796610169491,0.0086126276544956
40.70669347888538,0.0083207406160488
40.73542085607584,0.0085115066684425
40.7641482332663,0.0087448856027466
40.79287561045676,0.0088129576416485
40.821602987647225,0.0091105620907032
40.85033036483769,0.009177518303125
40.87905774202815,0.0090920277358564
40.907785119218616,0.009201113047878
40.93651249640907,0.0096040625805331
40.965239873599536,0.0089773003364704
40.99396725079,0.0090000917737096
41.022694627980464,0.0087795961050799
41.05142200517093,0.0090659005765689
41.08014938236139,0.0092633453390552
41.10887675955185,0.0092232015398109
41.13760413674231,0.0093037655092837
41.166331513932775,0.0094013509579382
41.19505889112324,0.009642631896853
41.2237862683137,0.0097123924155498
41.25251364550416,0.0100535677405098
41.28124102269462,0.0124877428595845
41.309968399885086,0.0103241696913461
41.33869577707555,0.0242094329496286
41.367423154266014,0.0234951880091114
41.39615053145648,0.0330139435646225
41.424877908646934,0.0331420000438019
41.4536052858374,0.0367975925774421
41.48233266302786,0.035156906230586
41.511060040218325,0.0346449010162878
41.53978741740879,0.031584519528035
41.56851479459925,0.028470992045011
41.59724217178971,0.0268300830027105
41.62596954898017,0.0160423098566151
41.65469692617064,0.0157664877167901
41.6834243033611,0.0103577199195922
41.71215168055157,0.0107062563549333
41.74087905774203,0.01016290888736
41.76960643493248,0.0095535348666633
41.79833381212295,0.0094126354206235
41.82706118931341,0.0091878908487153
41.855788566503875,0.0088261878891796
41.88451594369434,0.0084777907179813
41.9132433208848,0.0105371917771191
41.94197069807526,0.0100452465896244
41.97069807526572,0.0080289330777362
41.99942545245619,0.0091788467269685
42.02815282964665,0.0089404171361416
42.056880206837114,0.0091028275772941
42.08560758402758,0.0088059375878733
42.114334961218034,0.0086993346751821
42.1430623384085,0.0096175156731216
42.17178971559896,0.0090764166090868
42.200517092789426,0.008732451485503
42.22924446997989,0.0092030744387167
42.25797184717035,0.0091349330937575
42.28669922436081,0.0090421796754412
42.31542660155127,0.0090998686709618
42.34415397874174,0.008701376515532
42.3728813559322,0.0086357537549676
42.401608733122664,0.0081266969717519
42.43033611031313,0.008262244433272
42.459063487503585,0.0082876239491797
42.48779086469405,0.0081169427088286
42.51651824188451,0.0083830099774672
42.545245619074976,0.0081801762296817
42.57397299626544,0.008148677293324
42.6027003734559,0.0082939025478866
42.63142775064636,0.0081376021711908
42.66015512783682,0.0081328963572479
42.68888250502729,0.008362745150721
42.71760988221775,0.0081600028644465
42.746337259408214,0.0083165072809113
42.77506463659868,0.0082642303025878
42.803792013789135,0.0087876457785976
42.8325193909796,0.0091314811508184
42.86124676817006,0.0083425047191022
42.889974145360526,0.0086487179860646
42.91870152255099,0.0093889855395252
42.94742889974145,0.0083841850012669
42.97615627693191,0.0085641100691773
43.004883654122374,0.0086119396345779
43.03361103131284,0.0086097260097181
43.0623384085033,0.0088115071471363
43.091065785693765,0.0090867628745306
43.11979316288423,0.0092470604599624
43.148520540074685,0.009011025162224
43.17724791726515,0.0086441411338876
43.20597529445561,0.0086477105594333
43.23470267164608,0.0087480249218514
43.26343004883654,0.0086862913649823
43.292157426027,0.0092123863039807
43.32088480321746,0.0084231925339728
43.34961218040792,0.007976030760737
43.37833955759839,0.0093015901620602
43.40706693478885,0.008918420166091
43.435794311979315,0.0089621724360559
43.46452168916978,0.0088803309868989
43.493249066360235,0.0085083428711429
43.5219764435507,0.0083195236941412
43.55070382074116,0.0081839727156254
43.579431197931626,0.0075581789331306
43.60815857512209,0.0086290147211012
43.636885952312554,0.0082746045138077
43.66561332950301,0.0082218414726441
43.694340706693474,0.0088337977972092
43.72306808388394,0.00905757877889
43.7517954610744,0.0088932578899026
43.780522838264865,0.0090486164997605
43.80925021545533,0.0089838660070932
43.837977592645785,0.0086641936275886
43.86670496983625,0.0088087089146637
43.89543234702671,0.0088624555600511
43.924159724217176,0.0086330556574995
43.95288710140764,0.0084739066747845
43.981614478598104,0.0081336694505671
44.01034185578856,0.0088153752426546
44.039069232979024,0.0088838863925551
44.06779661016949,0.0085819194653057
44.09652398735995,0.0085445924018655
44.125251364550415,0.0088100882740429
44.15397874174088,0.008852977394788
44.182706118931335,0.0085535260910923
44.2114334961218,0.0084695220439748
44.24016087331226,0.008459896307326
44.26888825050273,0.0081464430406535
44.29761562769319,0.0088093852958253
44.326343004883654,0.0088226584318253
44.35507038207411,0.0089535600084899
44.383797759264574,0.0083722925372507
44.41252513645504,0.0077593875184271
44.4412525136455,0.0085227972342579
44.469979890835965,0.0090814205691105
44.49870726802643,0.0073817358749279
44.527434645216886,0.0080975002254156
44.55616202240735,0.0080961735186207
44.58488939959781,0.0076650090760104
44.61361677678828,0.0079081724505093
44.64234415397874,0.0080117872723669
44.6710715311692,0.0079400615204417
44.69979890835966,0.0083110684137942
44.72852628555013,0.0080770127053143
44.75725366274059,0.0082129433836221
44.78598103993105,0.0081714989952229
44.81470841712152,0.0085618572277835
44.84343579431198,0.0086847238351712
44.87216317150243,0.0086879630325246
44.9008905486929,0.0088272695850653
44.92961792588336,0.0086599849957537
44.95834530307383,0.0084626604586186
44.98707268026429,0.0087826491978795
45.015800057454754,0.0089935223881811
45.04452743464521,0.0081419107780135
45.073254811835675,0.0086394169387123
45.10198218902614,0.0085377656274083
45.1307095662166,0.0085715976121747
45.159436943407066,0.0083764466903364
45.18816432059753,0.008371491414711
45.216891697787986,0.0095254725409263
45.24561907497845,0.0072658907737987
45.27434645216891,0.0087412031524107
45.30307382935938,0.0173571476594035
45.33180120654984,0.0147551518790445
45.360528583740304,0.0135306061268501
45.38925596093076,0.0189383827244501
45.417983338121225,0.0200058372009301
45.44671071531169,0.0234867609222359
45.47543809250215,0.0228991315910106
45.504165469692616,0.0234468904871844
45.53289284688308,0.0205491866215168
45.561620224073536,0.0198991800854794
45.590347601264,0.0137498505224755
45.619074978454464,0.0153482034200852
45.64780235564493,0.0201900598615653
45.67652973283539,0.0093247157035336
45.705257110025855,0.0097134960627922
45.73398448721631,0.0100517438785889
45.762711864406775,0.0099571863899957
45.79143924159724,0.009968064000814
45.8201666187877,0.0099167069342022
45.848893995978166,0.0092727463332283
45.87762137316863,0.0089126398833175
45.906348750359086,0.0088506118310087
45.93507612754955,0.0083449237508958
45.963803504740014,0.0080017337406901
45.99253088193048,0.0086170732892205
46.02125825912094,0.0084521242292686
46.049985636311405,0.0087089836188688
46.07871301350186,0.0088339919478252
46.107440390692325,0.0087665946493046
46.13616776788279,0.0089016276324401
46.16489514507325,0.0089833468054426
46.19362252226371,0.0085426691947557
46.22234989945418,0.0086298509765972
46.25107727664464,0.0088568069838505
46.2798046538351,0.008824746472905
46.30853203102557,0.0087208219292239
46.33725940821603,0.0086183030669424
46.36598678540649,0.0087002123201126
46.394714162596955,0.0086731760831111
46.42344153978741,0.0088309662191957
46.452168916977875,0.009132421097597
46.48089629416834,0.0090626091624751
46.5096236713588,0.0092781890538061
46.538351048549266,0.0092985632201837
46.56707842573973,0.0090107214945303
46.59580580293019,0.0092262440925261
46.62453318012065,0.0092972708821608
46.653260557311114,0.0087344563181156
46.68198793450158,0.0089866134034346
46.71071531169204,0.0092459446655488
46.739442688882505,0.0078974570245095
46.76817006607296,0.0085299999270505
46.796897443263425,0.0082995994506686
46.82562482045389,0.0081439152112332
46.85435219764435,0.0080452981566891
46.88307957483482,0.0081492674507382
46.91180695202528,0.008393019046624
46.94053432921574,0.0085255615126112
46.9692617064062,0.0081361939107758
46.997989083596664,0.0083648916354908
47.02671646078713,0.0084892276440576
47.05544383797759,0.0087351292696376
47.08417121516805,0.008864937992377
47.11289859235851,0.0079284291880352
47.141625969548976,0.0084129394563935
47.17035334673944,0.0083941372616368
47.1990807239299,0.0085338091981976
47.22780810112037,0.0084672439940089
47.25653547831082,0.0082795452679367
47.28526285550129,0.0088688019052047
47.31399023269175,0.0091425607720297
47.342717609882214,0.0076221277689086
47.37144498707268,0.008450045403129
47.40017236426314,0.0085901259927563
47.4288997414536,0.0083155596792154
47.45762711864406,0.0082336929534767
47.486354495834526,0.0079994899325984
47.51508187302499,0.0080230940958202
47.54380925021545,0.0084261478585358
47.57253662740592,0.008693842205
47.60126400459637,0.0084978322954813
47.62999138178684,0.0083896328636769
47.6587187589773,0.0086004214256717
47.687446136167765,0.009094949187596
47.71617351335823,0.0093203606572273
47.74490089054869,0.0079802933106344
47.77362826773915,0.008424345120922
47.80235564492961,0.0078395585815888
47.83108302212008,0.0084722207013281
47.85981039931054,0.0088330542153033
47.888537776501,0.0087320862753899
47.91726515369147,0.0086000058657634
47.94599253088192,0.0085746532084341
47.97471990807239,0.0086479418228979
48.00344728526285,0.0086269069335063
48.032174662453315,0.0085376608417724
48.06090203964378,0.0084003860067886
48.08962941683424,0.0079849551671283
48.1183567940247,0.0078054365948687
48.14708417121516,0.0078996361515158
48.175811548405626,0.0086886488371158
48.20453892559609,0.0070742447609657
48.233266302786554,0.007538945411159
48.26199367997702,0.008529069843809
48.290721057167474,0.0084980029096374
48.31944843435794,0.0084056950430554
48.3481758115484,0.0083069071859815
48.376903188738865,0.0083496884727154
48.40563056592933,0.00880820929216
48.43435794311979,0.008873744135091
48.46308532031025,0.0088038313667581
48.49181269750071,0.008653291875923
48.520540074691176,0.0086001261373439
48.54926745188164,0.0088796407739515
48.577994829072104,0.0084724626402619
48.60672220626257,0.0086108243055731
48.635449583453024,0.0084974903213967
48.66417696064349,0.0080622597716176
48.69290433783395,0.0082051358255348
48.721631715024415,0.0076934194610903
48.75035909221488,0.0077031962023723
48.77908646940534,0.0079636576886744
48.8078138465958,0.0079202290396929
48.83654122378626,0.0078587639533732
48.86526860097673,0.007777967716021
48.89399597816719,0.0076150403496533
48.922723355357654,0.008038629427809
48.95145073254812,0.0084171885697265
48.980178109738574,0.0081118648673419
49.00890548692904,0.0075599286513479
49.0376328641195,0.0091688381508175
49.066360241309965,0.0090992484965983
49.09508761850043,0.0091041435434275
49.12381499569089,0.0092839666313986
49.15254237288135,0.0092853902067987
49.18126975007181,0.00946134372502
49.20999712726228,0.0095223311537242
49.23872450445274,0.0094390558957913
49.2674518816432,0.0091275140985122
49.29617925883367,0.008856466688777
49.32490663602413,0.0092458412293372
49.35363401321459,0.0103371343409742
49.38236139040505,0.0134700618888008
49.411088767595515,0.0170673157059351
49.43981614478598,0.0177235772949921
49.46854352197644,0.0188935328576518
49.4972708991669,0.0217267408176501
49.52599827635736,0.0218966652201849
49.55472565354783,0.0230259888240704
49.58345303073829,0.0222280177879536
49.612180407928754,0.0201219443191918
49.64090778511922,0.0182336164618883
49.669635162309675,0.0173735326160407
49.69836253950014,0.0159336626525941
49.7270899166906,0.0131824396403259
49.755817293881066,0.0138270613363193
49.78454467107153,0.0108016131282316
49.81327204826199,0.0059990054952492
49.84199942545245,0.0098035969949171
49.87072680264291,0.0090463404090848
49.89945417983338,0.0084020021636549
49.92818155702384,0.0080799807035372
49.956908934214304,0.0078311977916525
49.98563631140477,0.0080228371431836
50.014363688595225,0.0080919270951702
50.04309106578569,0.0078318659887617
50.07181844297615,0.0077107434058739
50.100545820166616,0.0079566881604986
50.12927319735708,0.0081377609446484
50.15800057454754,0.0086952554086476
50.186727951738,0.0086101342728834
50.21545532892846,0.0085424478363265
50.24418270611893,0.0087478924475525
50.27291008330939,0.0087529986487502
50.301637460499855,0.0084493139108573
50.33036483769032,0.0082184102510715
50.359092214880775,0.0082076787308249
50.38781959207124,0.0080992917788234
50.4165469692617,0.0082220758457959
50.445274346452166,0.0082939894679257
50.47400172364263,0.0083393475577045
50.50272910083309,0.0082007253016383
50.53145647802355,0.008187150650203
50.560183855214014,0.0085307352435993
50.58891123240448,0.0084627811492043
50.61763860959494,0.0086728667032025
50.646365986785405,0.008345920555099
50.67509336397587,0.008457117809602
50.703820741166325,0.0084849728888669
50.73254811835679,0.0084558449886464
50.76127549554725,0.0085573308209294
50.79000287273771,0.0084494701687209
50.81873024992818,0.0084612100355861
50.84745762711864,0.0088877981289432
50.8761850043091,0.0096241262042685
50.90491238149957,0.0093925257860902
50.93363975869003,0.0096350216474998
50.96236713588049,0.009364051267436
50.991094513070955,0.0091180156167933
51.01982189026142,0.0092404088525829
51.048549267451875,0.0090689715655818
51.07727664464234,0.0086623088364727
51.1060040218328,0.0080284391037731
51.134731399023266,0.0079267921393162
51.16345877621373,0.0079837539011788
51.192186153404194,0.0079983857851508
51.22091353059465,0.0082340399304965
51.249640907785114,0.0075246347861452
51.27836828497558,0.0076732237484336
51.30709566216604,0.0078559316820557
51.335823039356505,0.0078750383384146
51.36455041654697,0.0080768684868114
51.393277793737425,0.0076309974645458
51.42200517092789,0.0078406158550296
51.45073254811835,0.0083256148982979
51.47945992530882,0.0082644569178002
51.50818730249928,0.0081680944814488
51.536914679689744,0.0083628983234758
51.5656420568802,0.0082319191334955
51.594369434070664,0.0082492876592485
51.62309681126113,0.0082560010186913
51.65182418845159,0.0081120918166567
51.680551565642055,0.0079384776224262
51.70927894283252,0.0082518755742916
51.738006320022976,0.0076118901990034
51.76673369721344,0.0092635080532266
51.7954610744039,0.0087045842467371
51.82418845159437,0.0085853874287911
51.85291582878483,0.0088293459995099
51.881643205975294,0.0088527813718084
51.91037058316575,0.0086597068229989
51.939097960356214,0.0087562009019931
51.96782533754668,0.0087168180526544
51.99655271473714,0.008440208571411
52.025280091927605,0.0088636293677452
52.05400746911807,0.0089807814383804
52.082734846308526,0.0085914411336409
52.11146222349899,0.0085526161020781
52.14018960068945,0.0084954497963761
52.16891697787992,0.0080816995499897
52.19764435507038,0.0081262982220743
52.22637173226085,0.0081110517979328
52.2550991094513,0.0083136695729596
52.283826486641765,0.008279894057853
52.31255386383223,0.0083682025717586
52.34128124102269,0.0080738896188712
52.37000861821315,0.0084882944845281
52.39873599540362,0.0094154852174385
52.42746337259408,0.008918492171753
52.45619074978454,0.0090889777372181
52.484918126975,0.0092937922835179
52.51364550416547,0.0089297732558281
52.54237288135593,0.0086555766049978
52.571100258546394,0.009168382035377
52.59982763573685,0.0089714043634458
52.628555012927315,0.0086080183583449
52.65728239011778,0.0085637303483156
52.68600976730824,0.0086559972898341
52.714737144498706,0.0082662500383028
52.74346452168917,0.0081036102667287
52.772191898879626,0.0080765249111095
52.80091927607009,0.0082379849433314
52.82964665326055,0.0082568524900504
52.85837403045102,0.008166493874657
52.88710140764148,0.0082962386681476
52.915828784831945,0.0085843874237319
52.9445561620224,0.0088003278618721
52.973283539212865,0.0088440082813274
53.00201091640333,0.00919317488737
53.03073829359379,0.0085789178671674
53.059465670784256,0.0081977869831755
53.08819304797471,0.0096637154048265
53.116920425165176,0.0093577577363443
53.14564780235564,0.008423828315817
53.174375179546104,0.0086033047256978
53.20310255673657,0.0087776987587242
53.23182993392703,0.0078285433686896
53.26055731111749,0.0084758400028371
53.28928468830795,0.008402529122805
53.318012065498415,0.008401693514542
53.34673944268888,0.0085185582782977
53.37546681987934,0.0095143656829016
53.404194197069806,0.0074034787535652
53.43292157426026,0.0115818233640671
53.46164895145073,0.0183042191286805
53.49037632864119,0.0203888624471559
53.519103705831654,0.0239152265422028
53.54783108302212,0.0269834336070263
53.57655846021258,0.0285946319114989
53.60528583740304,0.0289089969558458
53.6340132145935,0.0293326773133414
53.662740591783965,0.0286773760549749
53.69146796897443,0.0259699719781815
53.72019534616489,0.0239630716183915
53.74892272335536,0.0184501890040975
53.77765010054581,0.0129123078644505
53.80637747773628,0.0116098578022419
53.83510485492674,0.0117599631938552
53.8638322321172,0.0084905286540495
53.89255960930767,0.0080527444111905
53.92128698649813,0.0082436194576584
53.95001436368859,0.0084207200133883
53.97874174087905,0.0084296239839211
54.007469118069515,0.0083776505744301
54.03619649525998,0.0083853406947857
54.06492387245044,0.0085153817064336
54.09365124964091,0.0085987257609257
54.12237862683136,0.008515326937379
54.15110600402183,0.0084396832105514
54.17983338121229,0.0088174623548205
54.208560758402754,0.0088639584339908
54.23728813559322,0.0079729659167458
54.26601551278368,0.0082470927644335
54.29474288997414,0.0081765830380963
54.3234702671646,0.0082496407255786
54.352197644355066,0.0084416928824288
54.38092502154553,0.0083626311190445
54.40965239873599,0.0080773790610409
54.43837977592646,0.0063750363014243
54.46710715311691,0.0100796435233273
54.49583453030738,0.0081049927929035
54.52456190749784,0.0076920776249261
54.553289284688304,0.0083537350583323
54.58201666187877,0.0082753684159731
54.61074403906923,0.0082442589739867
54.63947141625969,0.0083608080010708
54.66819879345015,0.0081809024604951
54.696926170640616,0.0079924080004339
54.72565354783108,0.0081540405455622
54.75438092502154,0.0084115458614901
54.78310830221201,0.0084427681431555
54.81183567940246,0.0085863343401627
54.84056305659293,0.0086961954037762
54.86929043378339,0.0087935787548005
54.898017810973855,0.0086438165569715
54.92674518816432,0.0092153775908236
54.95547256535478,0.0091558532821993
54.98419994254524,0.0090373352986202
55.0129273197357,0.0089390882957542
55.041654696926166,0.0086374717825879
55.07038207411663,0.0086475116576243
55.09910945130709,0.0085735290695999
55.12783682849756,0.0087080386332012
55.156564205688014,0.0090260022527223
55.18529158287848,0.0087373840679874
55.21401896006894,0.0080608009670082
55.242746337259405,0.009121885436296
55.27147371444987,0.0086347506043529
55.30020109164033,0.0082901097487982
55.32892846883079,0.0084346525310298
55.35765584602125,0.0078897045676889
55.38638322321171,0.0076269879565756
55.41511060040218,0.0075945435526053
55.44383797759264,0.008020853044187
55.47256535478311,0.0081472352637655
55.50129273197357,0.0079229742240816
55.53002010916403,0.0079582619541016
55.55874748635449,0.0078539586832218
55.587474863544955,0.0079868735102313
55.61620224073542,0.009360537589469
55.64492961792588,0.0079038191917224
55.67365699511634,0.0076744154859578
55.7023843723068,0.0083372130015844
55.731111749497266,0.0084995822771946
55.75983912668773,0.0086797273771233
55.788566503878194,0.0084049436969348
55.81729388106866,0.0083375129818064
55.846021258259114,0.0082237122731001
55.87474863544958,0.0080448356464069
55.90347601264004,0.0081461657274612
55.932203389830505,0.0083405496513901
55.96093076702097,0.0083603499978681
55.98965814421143,0.0077601230271614
56.01838552140189,0.0082378442581156
56.04711289859235,0.0080974495133728
56.07584027578282,0.0083345618720149
56.10456765297328,0.008158393598989
56.133295030163744,0.0077408520429706
56.16202240735421,0.0075543399040572
56.190749784544664,0.0076903921426117
56.21947716173513,0.0077340560141446
56.24820453892559,0.0078501618210866
56.276931916116055,0.008045025244129
56.30565929330652,0.0073535102981649
56.33438667049698,0.0078758295429439
56.36311404768744,0.0080287664013924
56.3918414248779,0.0078993989388041
56.42056880206837,0.0080913055364287
56.44929617925883,0.0078399727948165
56.478023556449294,0.0079504375977673
56.50675093363976,0.0081554875872139
56.535478310830214,0.0082476539495736
56.56420568802068,0.0084717987672439
56.59293306521114,0.0086803224195067
56.621660442401605,0.0087770324874468
56.65038781959207,0.0088357992155925
56.67911519678253,0.008746798347724
56.70784257397299,0.0085328061467184
56.73656995116345,0.0083658212171524
56.76529732835392,0.0080349198269178
56.79402470554438,0.0082067946456402
56.82275208273485,0.0079715259598117
56.85147945992531,0.0079831162340279
56.880206837115765,0.0081521098105112
56.90893421430623,0.0081048584354501
56.93766159149669,0.0082106770332099
56.96638896868715,0.0078205449540826
56.99511634587762,0.0085126993042888
57.02384372306808,0.0085290454071003
57.05257110025854,0.008097008654666
57.081298477449,0.0082631226581607
57.11002585463947,0.0082044960553067
57.13875323182993,0.0080037252571969
57.167480609020394,0.0082371752069752
57.19620798621086,0.0079882455695159
57.224935363401315,0.0080105841835134
57.25366274059178,0.00822728094564
57.28239011778224,0.0082369944687545
57.311117494972706,0.0082299403258103
57.33984487216317,0.0083894065529375
57.36857224935363,0.0085166504537943
57.39729962654409,0.0086238919292747
57.42602700373455,0.0084477149413103
57.45475438092502,0.0074252094632827
57.48348175811548,0.0101319064549864
57.512209135305945,0.015319176480186
57.54093651249641,0.0145066741682089
57.569663889686865,0.0198627131435222
57.59839126687733,0.0185816774385692
57.62711864406779,0.0261041922382977
57.655846021258256,0.0234572771425244
57.68457339844872,0.0233674763965443
57.71330077563918,0.0227547218476827
57.74202815282964,0.0197639009977048
57.770755530020104,0.0183871999794322
57.79948290721057,0.0165982873560198
57.82821028440103,0.0118588697152824
57.856937661591495,0.0125028089471694
57.88566503878196,0.0112561081059612
57.914392415972415,0.0080780542590079
57.94311979316288,0.0080549998906737
57.97184717035334,0.0079756096389911
58.000574547543806,0.0079047241878006
58.02930192473427,0.007925963110116
58.05802930192473,0.0080723056665658
58.08675667911519,0.0072406830342964
58.115484056305654,0.0077941709438465
58.14421143349612,0.0074418198556266
58.17293881068658,0.0084479709253093
58.201666187877045,0.0081846280347025
58.23039356506751,0.0092829613239004
58.259120942257965,0.0087678053668566
58.28784831944843,0.0081170608255605
58.31657569663889,0.0084606208927132
58.34530307382936,0.0080596969759636
58.37403045101982,0.007502359111842
58.40275782821029,0.007748910289303
58.43148520540074,0.0078849061783535
58.4602125825912,0.0079815243875572
58.48893995978167,0.0080162839578371
58.51766733697213,0.007749611415009
58.546394714162595,0.0080599386154956
58.57512209135306,0.0083752412286051
58.603849468543515,0.0085650816263898
58.63257684573398,0.0084001279399307
58.66130422292444,0.007760642487621
58.69003160011491,0.0077486293069865
58.71875897730537,0.007824724283851
58.747486354495834,0.008067984542894
58.77621373168629,0.0081038280784505
58.804941108876754,0.0070301599529507
58.83366848606722,0.007912456128279
58.86239586325768,0.0084569446434015
58.891123240448145,0.0080601084285274
58.9198506176386,0.0083560020166156
58.948577994829066,0.0084833121750344
58.97730537201953,0.0085391810021645
59.00603274920999,0.0087489549913295
59.03476012640046,0.0079961688805686
59.06348750359092,0.0082114758135326
59.09221488078138,0.0083903224180318
59.12094225797184,0.0075526015705188
59.149669635162304,0.0079188591944271
59.17839701235277,0.0082564419676693
59.20712438954323,0.0075122987502227
59.235851766733695,0.0078834012521381
59.26457914392415,0.0084569400541556
59.293306521114616,0.0077052039658601
59.32203389830508,0.0075457816262838
59.35076127549554,0.007855501710046
59.37948865268601,0.0079505211612886
59.40821602987647,0.0086292736646235
59.43694340706693,0.0071104762832725
59.46567078425739,0.0073438636881428
59.494398161447855,0.007807005814081
59.52312553863832,0.0081229148883033
59.55185291582878,0.0087409628489199
59.580580293019246,0.0088732538859575
59.6093076702097,0.008688424995483
59.638035047400166,0.0090006507962862
59.66676242459063,0.0089291079007137
59.69548980178109,0.0089814152861118
59.72421717897156,0.0093640838482795
59.75294455616202,0.0075511278790787
59.78167193335248,0.0076114641804622
59.81039931054294,0.0076639767772975
59.839126687733405,0.0078750757501628
59.86785406492387,0.0081349050947905
59.89658144211433,0.0074932526942658
59.9253088193048,0.0077827167463296
59.95403619649525,0.0081480398003262
59.98276357368571,0.0083484531788765
60.01149095087618,0.0086620928751389
60.04021832806664,0.0090326088872858
60.06894570525711,0.0086867376496111
60.09767308244757,0.0089011202508106
60.12640045963803,0.0091605580220286
60.15512783682849,0.0088716779162732
60.183855214018955,0.0087596108199746
60.21258259120942,0.0091614804879523
60.24130996839988,0.0092768779148083
60.270037345590346,0.0090815303677334
60.2987647227808,0.0091899944848445
60.327492099971266,0.009024954102005
60.35621947716173,0.0087208457514034
60.384946854352194,0.0089125372056105
60.41367423154266,0.0087971571980631
60.44240160873312,0.0078841897675716
60.47112898592358,0.0079741743167987
60.49985636311404,0.0077642981795891
60.528583740304505,0.0074341336264671
60.55731111749497,0.0080486884210842
60.58603849468543,0.0080066744410767
60.614765871875896,0.0080560009571658
60.64349324906635,0.0080902890054073
60.672220626256816,0.0079008276294491
60.70094800344728,0.0081248506468401
60.729675380637744,0.0081619573133576
60.75840275782821,0.0077401138647602
60.78713013501867,0.0082305642025247
60.81585751220913,0.0077044844204753
60.84458488939959,0.0071717982968207
60.873312266590055,0.008616927341726
60.90203964378052,0.0080781054982684
60.93076702097098,0.0078564847165059
60.959494398161446,0.008035897510119
60.9882217753519,0.0078414791332962
61.01694915254237,0.0081017310985394
61.04567652973283,0.0078595470207812
61.074403906923294,0.007803134351862
61.10313128411376,0.0081653999168476
61.13185866130422,0.0077981681359815
61.16058603849468,0.0076803147367253
61.18931341568514,0.0078558934307369
61.218040792875605,0.0078626393462852
61.24676817006607,0.0077365372680429
61.27549554725653,0.0074649116719034
61.304222924447,0.0075356312667367
61.33295030163745,0.0075885368902277
61.36167767882792,0.0073129111623991
61.39040505601838,0.0075086902075106
61.41913243320885,0.0074001800037399
61.44785981039931,0.0053118041919045
61.47658718758977,0.0090387024273329
61.50531456478023,0.0177731363943639
61.53404194197069,0.0192484977959083
61.56276931916115,0.0214995719725186
61.59149669635162,0.0208751717308581
61.62022407354208,0.0415304408172647
61.64895145073255,0.0368520370988449
61.677678827923,0.0288842965222241
61.70640620511347,0.0329048478664491
61.73513358230393,0.0339644489763927
61.763860959494394,0.0225953583295254
61.79258833668486,0.0236334767348949
61.82131571387532,0.0108026624558006
61.85004309106578,0.0099688799902718
61.87877046825624,0.0089959854980934
61.907497845446706,0.0091036516668341
61.93622522263717,0.0092464182814093
61.96495259982763,0.0072199290952312
61.9936799770181,0.0079017436439619
62.02240735420855,0.0076961728649415
62.05113473139902,0.0073235528975835
62.07986210858948,0.0072971095804034
62.108589485779945,0.0077773856282751
62.13731686297041,0.0077901663363492
62.16604424016087,0.0074840950732003
62.19477161735133,0.007554281438172
62.22349899454179,0.0077316991086114
62.252226371732256,0.0077531126300361
62.28095374892272,0.0077373733248734
62.30968112611318,0.0076322235582174
62.33840850330365,0.0074210498933496
62.367135880494104,0.0074545969415121
62.39586325768457,0.0073477531120977
62.42459063487503,0.0073375256981217
62.453318012065495,0.0075646760917871
62.48204538925596,0.0075077849294382
62.51077276644642,0.0073813485287318
62.53950014363688,0.0081176964963908
62.56822752082734,0.0081088468920523
62.596954898017806,0.0077994317202851
62.62568227520827,0.0077606035127995
62.65440965239873,0.0079309455129176
62.6831370295892,0.0078487150651263
62.711864406779654,0.0077834330784559
62.74059178397012,0.0078968392587171
62.76931916116058,0.0076793202210302
62.798046538351045,0.0075582762069935
62.82677391554151,0.008204665325637
62.85550129273197,0.008318812766742
62.88422866992243,0.0080560219353699
62.91295604711289,0.0080482972765129
62.94168342430336,0.0081473473067715
62.97041080149382,0.0081394616578614
62.99913817868429,0.0081456887366999
63.02786555587475,0.0077323967331889
63.0565929330652,0.0073319553937142
63.08532031025567,0.0073620653312366
63.11404768744613,0.0068645979441021
63.142775064636595,0.0070445536414351
63.17150244182706,0.0071684939938049
63.20022981901752,0.0067178387626775
63.22895719620798,0.0069451567224567
63.25768457339844,0.0077524256846437
63.28641195058891,0.007508664482158
63.31513932777937,0.0073895556625255
63.343866704969834,0.0076363622144354
63.3725940821603,0.0079995153149819
63.401321459350754,0.0070689216234473
63.43004883654122,0.0081747767168838
63.45877621373168,0.0081650547747691
63.487503590922145,0.0077252070445317
63.51623096811261,0.007850754828197
63.54495834530307,0.0076741441706494
63.57368572249353,0.0081870395014767
63.60241309968399,0.0081609876822458
63.63114047687446,0.007971819355741
63.65986785406492,0.0074836163512067
63.688595231255384,0.0070449231171185
63.71732260844585,0.008092362248141
63.746049985636304,0.0082820626529819
63.77477736282677,0.0078072427948481
63.80350474001723,0.008194678446379
63.832232117207695,0.0098519494545171
63.86095949439816,0.0071812058063606
63.88968687158862,0.0084351611027692
63.91841424877908,0.0087026759709479
63.94714162596954,0.0082957409224782
63.97586900316001,0.0083195933286178
64.00459638035046,0.0079956595850207
64.03332375754093,0.0079922287633221
64.06205113473139,0.0079445160006057
64.09077851192185,0.0084275889669999
64.11950588911232,0.0090929588535644
64.14823326630278,0.0089608137810598
64.17696064349325,0.0089425379654652
64.20568802068371,0.0086370158945364
64.23441539787417,0.0083375781717311
64.26314277506464,0.0083787137505104
64.2918701522551,0.0080245451029171
64.32059752944556,0.0077342888553826
64.34932490663601,0.0076738456502348
64.37805228382648,0.0076670881173478
64.40677966101694,0.0076050651694167
64.4355070382074,0.0077367405200067
64.46423441539787,0.0078029602913653
64.49296179258833,0.0081409360957507
64.5216891697788,0.0084497866838415
64.55041654696926,0.0084754351934594
64.57914392415972,0.0079611618364563
64.60787130135019,0.0076974845772795
64.63659867854065,0.0074110658821655
64.66532605573111,0.0080450375730403
64.69405343292156,0.0079899367047614
64.72278081011203,0.0080884032276183
64.75150818730249,0.0081918045758892
64.78023556449295,0.0070095754002527
64.80896294168342,0.0099960516113299
64.83769031887388,0.0092400025399363
64.86641769606435,0.0082337852165087
64.89514507325481,0.0085095631150387
64.92387245044527,0.0083452910154526
64.95259982763574,0.0082817947010118
64.9813272048262,0.0083723244349857
65.01005458201665,0.0080810854856339
65.03878195920711,0.0078799356895628
65.06750933639758,0.0076900890592895
65.09623671358804,0.0078683830195858
65.1249640907785,0.0081459426248732
65.15369146796897,0.0080496204761488
65.18241884515943,0.0076148270742096
65.2111462223499,0.0074623796321757
65.23987359954036,0.0076974415721169
65.26860097673082,0.0078789238775945
65.29732835392129,0.0078612339655145
65.32605573111175,0.0081998693010591
65.3547831083022,0.0080757580056371
65.38351048549266,0.007701187816211
65.41223786268313,0.0085780836725917
65.44096523987359,0.0082952549726439
65.46969261706406,0.0077604738514011
65.49841999425452,0.0117730983292609
65.52714737144498,0.0165624513066579
65.55587474863545,0.0174753377460676
65.58460212582591,0.0194736079023027
65.61332950301637,0.0231058908778819
65.64205688020684,0.0247996963716706
65.6707842573973,0.0246154155897162
65.69951163458775,0.0239447027089097
65.72823901177821,0.0231808828078752
65.75696638896868,0.0210894093750727
65.78569376615914,0.0173374502182612
65.8144211433496,0.0184963883906615
65.84314852054007,0.0148456190800972
65.87187589773053,0.0023068678218119
65.900603274921,0.009976055123411
65.92933065211146,0.0087273265156079
65.95805802930192,0.0073756991547286
65.98678540649239,0.0079966128248267
66.01551278368285,0.0080498823900906
66.0442401608733,0.0080011154334786
66.07296753806376,0.0081266230964509
66.10169491525423,0.008083923742951
66.13042229244469,0.0082235538426118
66.15914966963516,0.0081281766984522
66.18787704682562,0.0079609752520206
66.21660442401608,0.008063687130222
66.24533180120655,0.0083705294717467
66.27405917839701,0.0079856665014147
66.30278655558747,0.0080921357009157
66.33151393277794,0.008042571047922
66.3602413099684,0.0083965745548195
66.38896868715885,0.0080328756005682
66.41769606434931,0.0078919048335629
66.44642344153978,0.0077045498590028
66.47515081873024,0.0070574955655485
66.5038781959207,0.007252242790221
66.53260557311117,0.0073144030163745
66.56133295030163,0.0066632937030169
66.5900603274921,0.0069958840510425
66.61878770468256,0.0069837774414619
66.64751508187302,0.0079274874719828
66.67624245906349,0.0080081443054393
66.70496983625395,0.0078925536489716
66.7336972134444,0.0078571216918304
66.76242459063486,0.0085788489809521
66.79115196782533,0.0086153769079303
66.81987934501579,0.0084363743053706
66.84860672220626,0.0083488131506102
66.87733409939672,0.0082646109151904
66.90606147658718,0.0080342202574869
66.93478885377765,0.008008923807895
66.96351623096811,0.0080469315303176
66.99224360815857,0.0076905282836495
67.02097098534904,0.0076099577813905
67.0496983625395,0.0077700224758127
67.07842573972995,0.0077399899226203
67.10715311692041,0.007700469901514
67.13588049411088,0.0084721104124922
67.16460787130134,0.0087329042224792
67.1933352484918,0.0084123415238888
67.22206262568227,0.0083866305357028
67.25079000287273,0.0081627590104121
67.2795173800632,0.0082417652838372
67.30824475725366,0.0081507371596949
67.33697213444412,0.0078443545995657
67.36569951163459,0.0080705645926357
67.39442688882505,0.0077942992696511
67.4231542660155,0.0078543544759128
67.45188164320597,0.0081693362497616
67.48060902039643,0.0081747455065241
67.50933639758689,0.0083048571096361
67.53806377477736,0.0084475155518993
67.56679115196782,0.0083154336032781
67.59551852915828,0.0081688112910425
67.62424590634875,0.0076892938709923
67.65297328353921,0.0078800876283088
67.68170066072967,0.0084260982839827
67.71042803792014,0.0068989775181094
67.7391554151106,0.0077457954159686
67.76788279230105,0.0077792898855954
67.79661016949152,0.0077878503872602
67.82533754668198,0.0079814435016733
67.85406492387244,0.0076831847307123
67.8827923010629,0.0074025642620614
67.91151967825337,0.0078947383495412
67.94024705544383,0.0077814767186257
67.9689744326343,0.0080065937093476
67.99770180982476,0.0080535281285831
68.02642918701522,0.0077055320638712
68.05515656420569,0.0080131693245987
68.08388394139615,0.0081887142102892
68.1126113185866,0.0079802227517601
68.14133869577707,0.007704811898331
68.17006607296753,0.0074481904470815
68.19879345015799,0.0078961647919589
68.22752082734846,0.0079197834653439
68.25624820453892,0.0074930915659138
68.28497558172938,0.0073833928267085
68.31370295891985,0.0073750458713018
68.34243033611031,0.0070734231253794
68.37115771330078,0.0070352029481006
68.39988509049124,0.0080203160573009
68.4286124676817,0.0078693290833682
68.45733984487215,0.0066607653478779
68.48606722206262,0.0068922473772866
68.51479459925308,0.0073515818108729
68.54352197644354,0.0070831228872081
68.572249353634,0.0074128149982691
68.60097673082447,0.0073363929627744
68.62970410801493,0.007514657561771
68.6584314852054,0.0078482810494962
68.68715886239586,0.0083132853738778
68.71588623958633,0.0083361309865258
68.74461361677679,0.0084683332095464
68.77334099396725,0.0078604182944596
68.8020683711577,0.0083238195655236
68.83079574834817,0.009120765041437
68.85952312553863,0.0079036217605888
68.8882505027291,0.0083046870581375
68.91697787991956,0.0083157296331747
68.94570525711002,0.0079420450745951
68.97443263430048,0.0079225888894612
69.00316001149095,0.0084074460262883
69.03188738868141,0.0078580279055704
69.06061476587188,0.0077275550132455
69.08934214306234,0.0081771765367906
69.1180695202528,0.0082797961948476
69.14679689744325,0.0073847867251435
69.17552427463372,0.007666058539562
69.20425165182418,0.0077940943442598
69.23297902901464,0.007900431592222
69.2617064062051,0.0079305347739742
69.29043378339557,0.0081996170737591
69.31916116058603,0.0079010491792409
69.3478885377765,0.0079217415570701
69.37661591496696,0.0081689402247198
69.40534329215743,0.0080269606005318
69.43407066934789,0.0080232772980967
69.46279804653835,0.0080950609944896
69.4915254237288,0.0078501292952447
69.52025280091927,0.0076269839403126
69.54898017810973,0.0075701360274529
69.5777075553002,0.0065017225301491
69.60643493249066,0.0132661879451656
69.63516230968112,0.0187751094265336
69.66388968687158,0.020188256330177
69.69261706406205,0.0200716548235784
69.72134444125251,0.0206851159833088
69.75007181844298,0.0233712739358809
69.77879919563344,0.0239343107789855
69.8075265728239,0.0255622431264483
69.83625395001435,0.0075756448154592
69.86498132720482,0.0150373105935584
69.89370870439528,0.0158845043821069
69.92243608158574,0.0126236882708339
69.95116345877621,0.0104138696132656
69.97989083596667,0.0089737097993898
70.00861821315713,0.0079701014405424
70.0373455903476,0.0081333823715945
70.06607296753806,0.0082583781323451
70.09480034472853,0.0080758227837686
70.12352772191899,0.0081141026721605
70.15225509910945,0.0078231537875693
70.1809824762999,0.0082792050095238
70.20970985349037,0.0073224970011664
70.23843723068083,0.0091299363692178
70.2671646078713,0.0079318440368619
70.29589198506176,0.0080671536347918
70.32461936225222,0.0075824803617853
70.35334673944269,0.0076437337111449
70.38207411663315,0.0075643291643999
70.41080149382361,0.007466986857732
70.43952887101408,0.0077528001200501
70.46825624820454,0.0078325050935862
70.496983625395,0.0078545683706083
70.52571100258545,0.0080164956718926
70.55443837977592,0.0078384898055958
70.58316575696638,0.0077111389805527
70.61189313415684,0.0080394179953006
70.64062051134731,0.0077278127981777
70.66934788853777,0.0076550323735251
70.69807526572824,0.0077644832249608
70.7268026429187,0.0076591913712261
70.75553002010916,0.0066759384481453
70.78425739729963,0.0090361226855103
70.81298477449009,0.007820156610441
70.84171215168054,0.0073052625073669
70.870439528871,0.0073054770520441
70.89916690606147,0.0072089548662711
70.92789428325193,0.007623124476568
70.9566216604424,0.0072696923822685
70.98534903763286,0.0071742388056432
71.01407641482332,0.0078983473846511
71.04280379201379,0.0079711021160169
71.07153116920425,0.0077273833742351
71.10025854639471,0.0079820784198573
71.12898592358518,0.0082904061264199
71.15771330077564,0.008229608051986
71.18644067796609,0.0081178207580028
71.21516805515655,0.0080964476694745
71.24389543234702,0.0078385233018338
71.27262280953748,0.0075973622754211
71.30135018672794,0.0081979833507889
71.33007756391841,0.0080640361865239
71.35880494110887,0.0081019338011166
71.38753231829934,0.0081365667101598
71.4162596954898,0.0079030185378901
71.44498707268026,0.0075613916386626
71.47371444987073,0.007582825212308
71.50244182706119,0.007671131226789
71.53116920425164,0.0074884284255582
71.5598965814421,0.0076789056680496
71.58862395863257,0.0078226872371262
71.61735133582303,0.0075802653045105
71.6460787130135,0.0075245352674491
71.67480609020396,0.008521736818386
71.70353346739442,0.0083191169294301
71.73226084458489,0.0082039989731974
71.76098822177535,0.0084650996436928
71.78971559896581,0.0086706483228021
71.81844297615628,0.008229269779186
71.84717035334674,0.0084604671001086
71.87589773053719,0.0084509819526972
71.90462510772765,0.0081252700767134
71.93335248491812,0.0078212751331266
71.96207986210858,0.0077521368621685
71.99080723929904,0.0076232503043858
72.01953461648951,0.0074127951955174
72.04826199367997,0.00737849270191
72.07698937087044,0.0072288023299595
72.1057167480609,0.0070912957467667
72.13444412525136,0.0073983311776834
72.16317150244183,0.0074158945590175
72.19189887963229,0.0073003036319015
72.22062625682274,0.0072507192261753
72.2493536340132,0.0074908564706781
72.27808101120367,0.0076957663367446
72.30680838839413,0.008107904985181
72.3355357655846,0.0080344327730633
72.36426314277506,0.0078347139306686
72.39299051996552,0.0078667768736146
72.42171789715599,0.007809897603371
72.45044527434645,0.0083591265840687
72.47917265153691,0.0080170320072343
72.50790002872738,0.0070254088015801
72.53662740591784,0.0082860321774546
72.56535478310829,0.0079360186543656
72.59408216029875,0.0106600940659233
72.62280953748922,0.0082634601878452
72.65153691467968,0.0084928808685394
72.68026429187015,0.0081895085957073
72.70899166906061,0.0074942391777285
72.73771904625107,0.0072300534041463
72.76644642344154,0.008016032722068
72.795173800632,0.0070057773754653
72.82390117782246,0.0062127194870919
72.85262855501293,0.0066246215469498
72.88135593220339,0.0066223784404873
72.91008330939384,0.0062523571857543
72.9388106865843,0.0062167791643059
72.96753806377477,0.0065336413510969
72.99626544096523,0.0064804011145883
73.0249928181557,0.0063837541662382
73.05372019534616,0.0071974522704101
73.08244757253662,0.0073747126194743
73.11117494972709,0.0074508610297979
73.13990232691755,0.0075049880684284
73.16862970410801,0.007578422281628
73.19735708129848,0.0075979060956327
73.22608445848894,0.007655160822167
73.25481183567939,0.0072745821860263
73.28353921286985,0.006678991678443
73.31226659006032,0.0065781091060281
73.34099396725078,0.0066814881153556
73.36972134444125,0.0067321560305824
73.39844872163171,0.0068463196051688
73.42717609882217,0.0068160496738107
73.45590347601264,0.006742480929461
73.4846308532031,0.0069711225357768
73.51335823039356,0.0072838989544325
73.54208560758403,0.0074386474135128
73.57081298477449,0.0061148644594151
73.59954036196494,0.0078873591790543
73.6282677391554,0.0114780402918675
73.65699511634587,0.0145110546005005
73.68572249353633,0.0183274469220585
73.7144498707268,0.0237520107337669
73.74317724791726,0.0256742533441561
73.77190462510772,0.0253727472501158
73.80063200229819,0.0257121604595206
73.82935937948865,0.025660263862412
73.85808675667911,0.0254515373331499
73.88681413386958,0.0238667376477393
73.91554151106004,0.020046935816003
73.94426888825049,0.0141923936955362
73.97299626544095,0.008947401820177
74.00172364263142,0.0076024619934466
74.03045101982188,0.0073387342539701
74.05917839701235,0.0071706790015172
74.08790577420281,0.0072076355694289
74.11663315139327,0.0068664004363966
74.14536052858374,0.0071966250746606
74.1740879057742,0.0072659687547721
74.20281528296466,0.0070898677435374
74.23154266015513,0.0071492850638997
74.26027003734559,0.0073376187047459
74.28899741453604,0.0074696721586103
74.3177247917265,0.0074269142263902
74.34645216891697,0.007261014263659
74.37517954610743,0.0071396010354345
74.4039069232979,0.0070286618914106
74.43263430048836,0.0069441719982389
74.46136167767882,0.007048378617238
74.49008905486929,0.0063975122320375
74.51881643205975,0.0069406395664172
74.54754380925021,0.0074034343364202
74.57627118644068,0.0070550882771846
74.60499856363114,0.0070980594489188
74.63372594082159,0.0069712153299667
74.66245331801206,0.0069642010583404
74.69118069520252,0.0072471194427437
74.71990807239298,0.0073705008058572
74.74863544958345,0.0074205145848045
74.77736282677391,0.0069200797232182
74.80609020396437,0.0072028753950975
74.83481758115484,0.0072724315968981
74.8635449583453,0.0082182597708874
74.89227233553576,0.0082156698316355
74.92099971272623,0.0082547412504788
74.94972708991669,0.0067092780159607
74.97845446710714,0.0086460716104682
75.0071818442976,0.0085174002054099
75.03590922148807,0.0079267627429433
75.06463659867853,0.0082600467548396
75.093363975869,0.0081008528787487
75.12209135305946,0.0078203627606626
75.15081873024992,0.0080671829554347
75.17954610744039,0.0072474750443198
75.20827348463085,0.0075149083320389
75.23700086182131,0.007683789335506
75.26572823901178,0.0077236059919478
75.29445561620224,0.0078957351808925
75.32318299339269,0.0079990836692466
75.35191037058316,0.007618691238383
75.38063774777362,0.0074473391981506
75.40936512496408,0.0073888098205659
75.43809250215455,0.007507229285272
75.46681987934501,0.0082237449061784
75.49554725653547,0.0077877281075751
75.52427463372594,0.007958522629768
75.5530020109164,0.0079060363510841
75.58172938810687,0.0082323919422512
75.61045676529733,0.0098818427902432
75.63918414248779,0.0061285322071604
75.66791151967824,0.0072508234552788
75.6966388968687,0.0082718084203808
75.72536627405917,0.0077794663786556
75.75409365124963,0.0076349352390366
75.7828210284401,0.0075323856419976
75.81154840563056,0.0071537082621215
75.84027578282102,0.0073974999883934
75.86900316001149,0.0075215187424332
75.89773053720195,0.0071509021101972
75.92645791439242,0.0077318856673778
75.95518529158288,0.0079008950267406
75.98391266877334,0.0063140511759225
76.01264004596379,0.0064675118977181
76.04136742315426,0.0064832800425872
76.07009480034472,0.0061408755708159
76.09882217753518,0.0063291950830231
76.12754955472565,0.0062137504228889
76.15627693191611,0.0064622646048532
76.18500430910657,0.0064716608705919
76.21373168629704,0.006801251526462
76.2424590634875,0.0070272236174138
76.27118644067797,0.0069472570838136
76.29991381786843,0.0065327826380602
76.32864119505889,0.0069645795151811
76.35736857224934,0.0076301278821923
76.3860959494398,0.0077048573622661
76.41482332663027,0.0077435781349004
76.44355070382073,0.0074869872641817
76.4722780810112,0.0072692702708232
76.50100545820166,0.0074620379570018
76.52973283539212,0.0075106318941702
76.55846021258259,0.0086865307097836
76.58718758977305,0.0054528507940412
76.61591496696352,0.0069814404634977
76.64464234415398,0.0072842790517389
76.67336972134443,0.0072068572766934
76.70209709853489,0.0073543841653473
76.73082447572536,0.0073983308331867
76.75955185291582,0.0073739022906695
76.78827923010628,0.0075649880549907
76.81700660729675,0.0077251575260593
76.84573398448721,0.0079605203384666
76.87446136167767,0.0078872529476765
76.90318873886814,0.007715502218865
76.9319161160586,0.0078562259039793
76.96064349324907,0.0076554944133216
76.98937087043953,0.0079576382777681
77.01809824762998,0.0064282778377953
77.04682562482044,0.0070308475383636
77.0755530020109,0.0071042182053502
77.10428037920137,0.0069274897845891
77.13300775639183,0.0066394221167442
77.1617351335823,0.0076649265883276
77.19046251077276,0.0078390208923184
77.21918988796322,0.0078139362794964
77.24791726515369,0.0078163947433448
77.27664464234415,0.0078252193224935
77.30537201953462,0.0077671903793214
77.33409939672508,0.00777330254128
77.36282677391553,0.0078953021251319
77.39155415110599,0.0079483099367268
77.42028152829646,0.0065825977563009
77.44900890548692,0.007147885259058
77.47773628267738,0.0076287849317418
77.50646365986785,0.0073206646668722
77.53519103705831,0.0075793926811932
77.56391841424877,0.008899341196102
77.59264579143924,0.0144704062163426
77.6213731686297,0.017130560029358
77.65010054582017,0.0166927773961847
77.67882792301063,0.0212057631534066
77.70755530020108,0.0192810172709873
77.73628267739154,0.0194568638034701
77.765010054582,0.0190929517456791
77.79373743177247,0.0169950874879701
77.82246480896293,0.0157257173006157
77.8511921861534,0.0120120634540321
77.87991956334386,0.0114761878968181
77.90864694053433,0.004967736265596
77.93737431772479,0.0074599407392167
77.96610169491525,0.0073475199504392
77.99482907210572,0.0066896784579705
78.02355644929618,0.0074082243667813
78.05228382648663,0.0074107251686717
78.0810112036771,0.0071929034523178
78.10973858086756,0.0073034098976823
78.13846595805802,0.0071719147148525
78.16719333524848,0.0070866272583308
78.19592071243895,0.0072723526655697
78.22464808962941,0.0071834229345551
78.25337546681988,0.0066813247498148
78.28210284401034,0.0064968735818683
78.3108302212008,0.0071001967657303
78.33955759839127,0.0071939866304349
78.36828497558173,0.0070967802876604
78.39701235277218,0.007369955824554
78.42573972996264,0.0074926452868034
78.4544671071531,0.0075172037778512
78.48319448434357,0.0075505730433105
78.51192186153403,0.0069490442910222
78.5406492387245,0.0070386027442691
78.56937661591496,0.0068969508557825
78.59810399310543,0.0068214652954997
78.62683137029589,0.0067059033355071
78.65555874748635,0.0065268446551098
78.68428612467682,0.0063986159965724
78.71301350186728,0.0065363422574623
78.74174087905773,0.0065182378059295
78.7704682562482,0.006418239574654
78.79919563343866,0.0068591262541383
78.82792301062912,0.006728875500861
78.85665038781958,0.0069540328012852
78.88537776501005,0.007395872431618
78.91410514220051,0.00754624248339
78.94283251939098,0.007671265439843
78.97155989658144,0.0073907492759714
79.0002872737719,0.0074735486423826
79.02901465096237,0.0073271670943034
79.05774202815283,0.0070433562674148
79.08646940534328,0.0068038778095473
79.11519678253374,0.0066216282040059
79.14392415972421,0.006329851762166
79.17265153691467,0.0064794801334074
79.20137891410513,0.0066724743570913
79.2301062912956,0.0068304791050078
79.25883366848606,0.0074877547018933
79.28756104567653,0.0073083529723666
79.31628842286699,0.0073108383408815
79.34501580005745,0.0069259048914843
79.37374317724792,0.0072460338062653
79.40247055443838,0.0075361745315455
79.43119793162883,0.0075897112366733
79.4599253088193,0.007460575646741
79.48865268600976,0.0072414402674005
79.51738006320022,0.0072482965115112
79.54610744039068,0.0074890154737501
79.57483481758115,0.0077346683684228
79.60356219477161,0.0079510565803604
79.63228957196208,0.0076885303612015
79.66101694915254,0.0074418459860217
79.689744326343,0.007393080880127
79.71847170353347,0.007386396215914
79.74719908072393,0.0072043528846707
79.77592645791438,0.0067976666714563
79.80465383510484,0.0070673373364819
79.83338121229531,0.0074431426499637
79.86210858948577,0.0074853089023606
79.89083596667624,0.0076202793713005
79.9195633438667,0.0074419864736062
79.94829072105716,0.0077274227770411
79.97701809824763,0.0079684244132355
80.00574547543809,0.0085208111197685
80.03447285262855,0.007821596772756
80.06320022981902,0.0077419818228553
80.09192760700948,0.0075620535083473
80.12065498419993,0.0074863625178927
80.1493823613904,0.007431606096188
80.17810973858086,0.0072058538864554
80.20683711577132,0.0068777334039409
80.23556449296179,0.0069354690603214
80.26429187015225,0.0069879335573213
80.29301924734271,0.0059684845895688
80.32174662453318,0.0076480216839175
80.35047400172364,0.0082573761112208
80.3792013789141,0.0070805467335791
80.40792875610457,0.0074438747060876
80.43665613329503,0.007657996574561
80.46538351048548,0.0079373754859772
80.49411088767594,0.0078973221467512
80.52283826486641,0.0073998393194224
80.55156564205687,0.0075925600656306
80.58029301924734,0.0070403634144835
80.6090203964378,0.0080187147492687
80.63774777362826,0.0077245048441453
80.66647515081873,0.0072535622305037
80.69520252800919,0.0070591465012841
80.72392990519965,0.0072426675546029
80.75265728239012,0.0069061306369443
80.78138465958058,0.0067447993938931
80.81011203677103,0.0080278492504071
80.8388394139615,0.0075453470746152
80.86756679115196,0.0076767101929411
80.89629416834242,0.0078475579949252
80.92502154553289,0.007886947517827
80.95374892272335,0.0080193194514367
80.98247629991381,0.0078473947359843
81.01120367710428,0.0076956665593169
81.03993105429474,0.0075388421539696
81.0686584314852,0.0073698970799896
81.09738580867567,0.0072106568141141
81.12611318586613,0.0072663497300669
81.15484056305658,0.0070898863632418
81.18356794024704,0.006437736544133
81.21229531743751,0.006782349889764
81.24102269462797,0.0071914724038017
81.26975007181844,0.0066073857371821
81.2984774490089,0.0074476825592047
81.32720482619936,0.0078570862820664
81.35593220338983,0.0071839608665187
81.38465958058029,0.0075014652147185
81.41338695777075,0.0078661618327938
81.44211433496122,0.0074219343310408
81.47084171215168,0.007445629145538
81.49956908934213,0.0074945765039034
81.5282964665326,0.0075950851232934
81.55702384372306,0.007784561141716
81.58575122091352,0.0064291854226046
81.61447859810399,0.0091054137906529
81.64320597529445,0.0185397102583469
81.67193335248491,0.0188115868004181
81.70066072967538,0.0196900017813693
81.72938810686584,0.0229355631424032
81.7581154840563,0.0298748531104169
81.78684286124677,0.0296074292726715
81.81557023843723,0.0268047786921002
81.84429761562768,0.0262213792270437
81.87302499281815,0.0251739598257311
81.90175237000861,0.0227780673426668
81.93047974719907,0.0220686369533677
81.95920712438954,0.0116259648122528
81.98793450158,0.0085447669990868
82.01666187877046,0.008607760555093
82.04538925596093,0.0075399044619193
82.07411663315139,0.0077231717938974
82.10284401034185,0.0077450621325108
82.13157138753232,0.0079951721035171
82.16029876472278,0.0077136237170719
82.18902614191323,0.0078374473963769
82.2177535191037,0.0075674563297896
82.24648089629416,0.0076496526053023
82.27520827348462,0.0075968672145722
82.30393565067509,0.0067077809579182
82.33266302786555,0.0081504225502575
82.36139040505601,0.0076162408999792
82.39011778224648,0.0072346322183183
82.41884515943694,0.0078745208028924
82.4475725366274,0.0079784538450118
82.47629991381787,0.0079597205027513
82.50502729100832,0.008147641644136
82.53375466819878,0.0079715207139054
82.56248204538925,0.0079000377939139
82.59120942257971,0.0081916642391187
82.61993679977017,0.0079579184633463
82.64866417696064,0.0075791195675302
82.6773915541511,0.0084998151369961
82.70611893134156,0.0080309743538269
82.73484630853203,0.0079853723529087
82.76357368572249,0.0080003186848563
82.79230106291295,0.0078855105267148
82.82102844010342,0.0077526409529647
82.84975581729387,0.0076105541417166
82.87848319448433,0.0074151411692941
82.9072105716748,0.0072295392901034
82.93593794886526,0.0075448661193928
82.96466532605572,0.0078214796124769
82.99339270324619,0.0067823205092796
83.02212008043665,0.0077244214481442
83.05084745762711,0.0076242247348438
83.07957483481758,0.0068945864736035
83.10830221200804,0.0070169781875139
83.1370295891985,0.0069227671301209
83.16575696638897,0.00702421544691
83.19448434357942,0.0073572342992062
83.22321172076988,0.0070765253242699
83.25193909796035,0.0072819502902127
83.28066647515081,0.0079033887071238
83.30939385234127,0.0067680947558577
83.33812122953174,0.0063485038110904
83.3668486067222,0.0090569286616285
83.39557598391266,0.0074582809955477
83.42430336110313,0.0079460435230418
83.45303073829359,0.0070188356789417
83.48175811548406,0.0075944828568822
83.51048549267452,0.0074920400087318
83.53921286986497,0.0076850649533348
83.56794024705543,0.0080360600642347
83.5966676242459,0.0078526589517988
83.62539500143636,0.007810180264028
83.65412237862682,0.0081102112675001
83.68284975581729,0.00712255739051
83.71157713300775,0.007466711654036
83.74030451019821,0.0072564889133932
83.76903188738868,0.0067631088739416
83.79775926457914,0.0069017120059248
83.8264866417696,0.0068788025171311
83.85521401896007,0.0069121547600631
83.88394139615052,0.0073645361649809
83.91266877334098,0.0070551936070418
83.94139615053145,0.0068522704567408
83.97012352772191,0.0074283834937253
83.99885090491237,0.0064330862827146
84.02757828210284,0.0084772571336168
84.0563056592933,0.0046390576649795
84.08503303648376,0.00617556092033
84.11376041367423,0.007883770391256
84.14248779086469,0.0067608529285324
84.17121516805516,0.0066465413937353
84.19994254524562,0.0074131958055436
84.22866992243607,0.0070554500018562
84.25739729962653,0.0075043541690778
84.286124676817,0.0077571110177975
84.31485205400746,0.007826984781817
84.34357943119792,0.0083120994824515
84.37230680838839,0.0088559198643556
84.40103418557885,0.0090167205936727
84.42976156276931,0.0086888569950237
84.45848893995978,0.0083741252228295
84.48721631715024,0.0086661179734007
84.5159436943407,0.0086705685534525
84.54467107153117,0.0083482911157069
84.57339844872162,0.0085385119804338
84.60212582591208,0.008151915345931
84.63085320310255,0.0079424726086541
84.65958058029301,0.0081132364126299
84.68830795748347,0.0081893105063041
84.71703533467394,0.0077798448829612
84.7457627118644,0.0075952025716991
84.77449008905486,0.0074479783740695
84.80321746624533,0.0072844071692388
84.83194484343579,0.0072154081851563
84.86067222062626,0.0068659455124881
84.88939959781672,0.0072033118799636
84.91812697500717,0.0072337152251278
84.94685435219763,0.0071847036157288
84.9755817293881,0.0072908081780114
85.00430910657856,0.0074257686510034
85.03303648376902,0.0074328552342861
85.06176386095949,0.0073198863499584
85.09049123814995,0.0074680041360526
85.11921861534042,0.0076546732207449
85.14794599253088,0.0072911306916963
85.17667336972134,0.0075427848905998
85.2054007469118,0.0075106768134986
85.23412812410227,0.0075943474740082
85.26285550129272,0.007828815702642
85.29158287848318,0.0076867454440883
85.32031025567365,0.0074974205266
85.34903763286411,0.0076052542493677
85.37776501005457,0.0079972051202723
85.40649238724504,0.0078891828533053
85.4352197644355,0.0075769280164403
85.46394714162597,0.0072409706741835
85.49267451881643,0.0071533764083917
85.52140189600689,0.0069443494870916
85.55012927319736,0.0067657647940958
85.57885665038782,0.0070477359920844
85.60758402757827,0.0068947678439303
85.63631140476873,0.0071079407178656
85.6650387819592,0.0046650472122759
85.69376615914966,0.005506101430389
85.72249353634012,0.0147323518337761
85.75122091353059,0.0145414657777023
85.77994829072105,0.0191020823098865
85.80867566791152,0.0164041822315937
85.83740304510198,0.0268390296482926
85.86613042229244,0.0304545928025314
85.8948577994829,0.0176399071175305
85.92358517667337,0.0246654038449009
85.95231255386382,0.0276755066996333
85.98103993105428,0.0157566867044463
86.00976730824475,0.0181807089383384
86.03849468543521,0.0142558042577346
86.06722206262567,0.0129384594322979
86.09594943981614,0.011806127222931
86.1246768170066,0.0031839842375612
86.15340419419707,0.0070963132416418
86.18213157138753,0.006837396488842
86.210858948578,0.0072946340474622
86.23958632576846,0.007154065231271
86.26831370295892,0.0072258425721875
86.29704108014937,0.0072918469226966
86.32576845733983,0.0069189937143508
86.3544958345303,0.0081524564249714
86.38322321172076,0.00747907113366
86.41195058891122,0.0068632898387364
86.44067796610169,0.0078533942498011
86.46940534329215,0.0086044267127753
86.49813272048262,0.0060151602252096
86.52686009767308,0.0074632339822792
86.55558747486354,0.0076746922273222
86.584314852054,0.0073782063635278
86.61304222924447,0.0074863990665262
86.64176960643492,0.0076788933736905
86.67049698362538,0.0074509391478008
86.69922436081585,0.0072639750010182
86.72795173800631,0.0073443446867359
86.75667911519677,0.0072160304490593
86.78540649238724,0.0072433279998051
86.8141338695777,0.0073149982969116
86.84286124676817,0.0072199574668222
86.87158862395863,0.007341782907205
86.9003160011491,0.0071572087577106
86.92904337833956,0.0070695080225786
86.95777075553002,0.0072026980013294
86.98649813272047,0.0073224176391996
87.01522550991093,0.0067922034726393
87.0439528871014,0.0074301564936039
87.07268026429186,0.0078259559518732
87.10140764148233,0.0072952443664689
87.13013501867279,0.0075963668052859
87.15886239586325,0.0074207276330328
87.18758977305372,0.0078153306123637
87.21631715024418,0.0079049960562183
87.24504452743464,0.0079255528717719
87.27377190462511,0.0082505506149289
87.30249928181557,0.0082377539404017
87.33122665900602,0.0073727732830294
87.35995403619648,0.0076879811175876
87.38868141338695,0.007680406767323
87.41740879057741,0.0079041013421572
87.44613616776788,0.0076663848142422
87.47486354495834,0.0072861076791604
87.5035909221488,0.0075923556314816
87.53231829933927,0.0075184610314869
87.56104567652973,0.0085989601011188
87.5897730537202,0.0084204642208135
87.61850043091066,0.0081364631699868
87.64722780810112,0.0082229216317068
87.67595518529157,0.0084504331903294
87.70468256248203,0.0037696233748571
87.7334099396725,0.0149022302116631
87.76213731686296,0.0075189734011302
87.79086469405343,0.0075716744559066
87.81959207124389,0.0076444833959942
87.84831944843435,0.0073859811704453
87.87704682562482,0.0073261892931091
87.90577420281528,0.007451080636878
87.93450158000574,0.0074665449441084
87.96322895719621,0.0073696482208907
87.99195633438667,0.0073304166344515
88.02068371157712,0.0078319755119541
88.04941108876758,0.0070666283046432
88.07813846595805,0.0072940507381849
88.10686584314851,0.0074857749889847
88.13559322033898,0.00726668927437
88.16432059752944,0.0071902972791523
88.1930479747199,0.0074332771405036
88.22177535191037,0.0077690014173442
88.25050272910083,0.007572725363132
88.2792301062913,0.007549239356499
88.30795748348176,0.0076900709693962
88.33668486067221,0.0076232446980323
88.36541223786267,0.007737695947614
88.39413961505313,0.0078506262106242
88.4228669922436,0.0072966937705973
88.45159436943406,0.0066463256350364
88.48032174662453,0.0066238552682165
88.50904912381499,0.0069932495329666
88.53777650100545,0.0072875303637086
88.56650387819592,0.006509309121361
88.59523125538638,0.0061786988314282
88.62395863257684,0.0067042510912082
88.65268600976731,0.0070082550148333
88.68141338695776,0.0070235221578267
88.71014076414822,0.006670705893877
88.73886814133868,0.0066533325395523
88.76759551852915,0.0070068699551659
88.79632289571961,0.0076565824775302
88.82505027291008,0.0079726761463941
88.85377765010054,0.0075608103431028
88.882505027291,0.0077614653848165
88.91123240448147,0.0079441472611766
88.93995978167193,0.0079428558883923
88.9686871588624,0.0079525118490636
88.99741453605286,0.0078051999784996
89.02614191324331,0.0076007712671446
89.05486929043377,0.0075600153189876
89.08359666762424,0.007309732281378
89.1123240448147,0.0073643553145421
89.14105142200516,0.0069657218534406
89.16977879919563,0.0070373270468183
89.19850617638609,0.0073792737724928
89.22723355357655,0.0074052310678114
89.25596093076702,0.0072919793421982
89.28468830795748,0.0077843999564691
89.31341568514794,0.0075622519613175
89.34214306233841,0.0078225843540675
89.37087043952886,0.0081849820480259
89.39959781671932,0.0080931924528997
89.42832519390979,0.0086518867612614
89.45705257110025,0.0070731447319217
89.48577994829071,0.0072805847477322
89.51450732548118,0.0080440475789221
89.54323470267164,0.0077034155869913
89.5719620798621,0.0074255318783066
89.60068945705257,0.0072462566357765
89.62941683424303,0.0072231620253577
89.6581442114335,0.0075275746927321
89.68687158862396,0.007640022080254
89.71559896581441,0.0123921301879657
89.74432634300487,0.0160834639135045
89.77305372019534,0.0168946918978395
89.8017810973858,0.0187609817003316
89.83050847457626,0.0206844422584456
89.85923585176673,0.0211985904985593
89.88796322895719,0.0207923261124176
89.91669060614765,0.0200187833397525
89.94541798333812,0.0196906864766246
89.97414536052858,0.0171534866966445
90.00287273771904,0.0140020357412074
90.03160011490951,0.0133535717426541
90.06032749209996,0.0087859242449577
90.08905486929042,0.0068567519654466
90.11778224648089,0.0074075779073178
90.14650962367136,0.0072989068243406
90.1752370008618,0.0072551633680967
90.20396437805228,0.0072728285495232
90.23269175524274,0.0072145483502438
90.2614191324332,0.0070619593757364
90.29014650962368,0.0070642853313049
90.31887388681412,0.0068998320642581
90.3476012640046,0.0073801522146767
90.37632864119506,0.0070972905476229
90.40505601838552,0.0063827724390461
90.43378339557596,0.0070507165220643
90.46251077276644,0.0069765151973392
90.4912381499569,0.0069872820548226
90.51996552714736,0.0070788412234964
90.54869290433784,0.0068670868080087
90.57742028152828,0.007451687265496
90.60614765871875,0.0075220211011184
90.63487503590922,0.007152054469886
90.66360241309968,0.0078966079186081
90.69232979029016,0.007749597627278
90.7210571674806,0.0073725758704914
90.74978454467106,0.0075031581372407
90.77851192186152,0.0075440207340064
90.807239299052,0.0075437882697692
90.83596667624244,0.0076390720887595
90.86469405343291,0.0071555777147885
90.89342143062338,0.007028835794723
90.92214880781384,0.0078239358477248
90.9508761850043,0.0082142101989973
90.97960356219475,0.0081687790462343
91.00833093938525,0.0081070377164435
91.0370583165757,0.0079579095736246
91.06578569376616,0.0079708894569293
91.0945130709566,0.0083564705803719
91.12324044814709,0.0078929668517702
91.15196782533754,0.0074042132644385
91.180695202528,0.0074291200812687
91.20942257971846,0.0072839347998368
91.23814995690891,0.0069618539324832
91.2668773340994,0.006896625373058
91.29560471128984,0.0075607156475474
91.32433208848032,0.0059911613805451
91.35305946567078,0.0072142070922872
91.38178684286125,0.0073671826969834
91.41051422005172,0.0077238667366006
91.43924159724216,0.0076633983631153
91.46796897443262,0.0074838802619862
91.49669635162309,0.007510371656567
91.52542372881356,0.007646076322915
91.554151106004,0.0074030051103608
91.58287848319448,0.0071440930547006
91.61160586038494,0.0078014952912263
91.6403332375754,0.0058863109195904
91.66906061476588,0.0051448607728539
91.69778799195632,0.0110322100003255
91.7265153691468,0.0074493957123977
91.75524274633726,0.0071364108105325
91.78397012352772,0.0078004604841775
91.81269750071816,0.0077343587473819
91.84142487790864,0.007630254444773
91.8701522550991,0.007612024753568
91.89887963228956,0.0070982655713372
91.92760700948004,0.0068075264546236
91.95633438667048,0.0071781741576324
91.98506176386095,0.0072949186554054
92.01378914105142,0.0073770701899504
92.04251651824188,0.0074593103223873
92.07124389543236,0.0073417278204721
92.0999712726228,0.0068872491946419
92.12869864981326,0.0070266438020921
92.15742602700372,0.00712142049831
92.1861534041942,0.0070601917945112
92.21488078138464,0.0071497455218
92.24360815857511,0.0068615435597672
92.27233553576558,0.0066143197292994
92.30106291295604,0.0071985404563982
92.3297902901465,0.0068838521281674
92.35851766733695,0.0066346170479512
92.38724504452745,0.0066835350153905
92.4159724217179,0.0068463788884467
92.44469979890836,0.0067060090273765
92.4734271760988,0.0066617947516984
92.50215455328927,0.0067614155881203
92.53088193047974,0.0066036189208165
92.5596093076702,0.0066387922614286
92.58833668486066,0.007116490720994
92.61706406205111,0.0061017738029499
92.6457914392416,0.0065816116397724
92.67451881643206,0.0072785229286046
92.70324619362252,0.0074562465165593
92.73197357081298,0.0075555817046422
92.76070094800345,0.0079158307349915
92.78942832519392,0.0075326644946213
92.81815570238436,0.0068204337700389
92.84688307957482,0.0090559179399924
92.87561045676529,0.0073301037312152
92.90433783395576,0.0070972640780101
92.9330652111462,0.0073776257011836
92.96179258833668,0.007228644004602
92.99051996552714,0.00693544122748
