timestamp,emg
0.0,0.0063018840451713
0.0287273771904625,0.0061659003401643
0.057454754380925,0.0059531852905545
0.0861821315713875,0.005971932587093
0.11490950876185,0.0061921549529328
0.1436368859523125,0.0059545184664944
0.172364263142775,0.005585803882363
0.2010916403332375,0.0062132710206674
0.2298190175237,0.0059055553380087
0.2585463947141626,0.0060826428534896
0.2872737719046251,0.0063193640380396
0.3160011490950876,0.0063507189646382
0.3447285262855501,0.0058621792603922
0.3734559034760126,0.0073383325922131
0.4021832806664751,0.0069581560715151
0.4309106578569376,0.0071947108576883
0.4596380350474001,0.0070847296651281
0.4883654122378627,0.0069340934790277
0.5170927894283252,0.0068890042829263
0.5458201666187876,0.0069933896551473
0.5745475438092502,0.0070138240330943
0.6032749209997127,0.0067005001843548
0.6320022981901752,0.0068121477469615
0.6607296753806376,0.0071882251270785
0.6894570525711002,0.0068242098169261
0.7181844297615627,0.007192074430087
0.7469118069520252,0.0069195107689391
0.7756391841424878,0.0069589141995679
0.8043665613329503,0.0076020952940466
0.8330939385234127,0.006891739463077
0.8618213157138752,0.0071112480736836
0.8905486929043378,0.0073390223253229
0.9192760700948004,0.006997651233405
0.9480034472852628,0.0068795041216706
0.9767308244757252,0.0073709778308588
1.0054582016661875,0.0069407152874762
1.0341855788566503,0.0072487003738281
1.062912956047113,0.0074718779920483
1.0916403332375753,0.0072804304447726
1.1203677104280378,0.0071069129410699
1.1490950876185004,0.0070819674927681
1.1778224648089628,0.006425620370797
1.2065498419994254,0.0071601644226341
1.235277219189888,0.0074001579531855
1.2640045963803503,0.0066340351895267
1.292731973570813,0.0066186643969472
1.3214593507612753,0.0071271426558047
1.350186727951738,0.0066032834749052
1.3789141051422005,0.0069159529800514
1.4076414823326628,0.0071651242517194
1.4363688595231254,0.0070563384341945
1.465096236713588,0.0065862782244148
1.4938236139040504,0.0074680985535325
1.522550991094513,0.0072147459558162
1.5512783682849756,0.0071817819532087
1.580005745475438,0.0072042656883131
1.6087331226659003,0.0069296939995908
1.637460499856363,0.0071309773423171
1.6661878770468257,0.0071184395980053
1.694915254237288,0.0069226981706987
1.7236426314277504,0.0066505639392025
1.752370008618213,0.0063053023709531
1.7810973858086756,0.0076117856180318
1.809824762999138,0.0072770123192101
1.8385521401896008,0.0069634459113276
1.8672795173800631,0.0068396213548413
1.8960068945705255,0.006646174820258
1.924734271760988,0.0070910583472349
1.9534616489514507,0.0063692865996785
1.982189026141913,0.0065177247122713
2.010916403332375,0.0082449783593795
2.0396437805228382,0.0066643499035667
2.0683711577133006,0.0066020736675913
2.097098534903763,0.0085401732466538
2.125825912094226,0.0085995305875118
2.154553289284688,0.0090316756541679
2.1832806664751505,0.0103309226317741
2.2120080436656133,0.0095701588291902
2.2407354208560757,0.0090150485388837
2.269462798046538,0.0090558934168388
2.298190175237001,0.0087439163682986
2.3269175524274632,0.0085389112462419
2.3556449296179256,0.0082052029694161
2.3843723068083884,0.0073861148296555
2.4130996839988508,0.0066808476152423
2.441827061189313,0.0069571264330567
2.470554438379776,0.0069425156701598
2.4992818155702383,0.006434696326022
2.5280091927607007,0.006825251422061
2.5567365699511635,0.0070280068296288
2.585463947141626,0.0068058252309205
2.614191324332088,0.0066631949372256
2.6429187015225506,0.0067199962302852
2.6716460787130134,0.0068715830566343
2.700373455903476,0.0067947185425783
2.729100833093938,0.0064893323950543
2.757828210284401,0.006291816487833
2.7865555874748633,0.0065619134225621
2.8152829646653257,0.0069376643719607
2.8440103418557885,0.0069656465773727
2.872737719046251,0.0071005481608876
2.9014650962367132,0.0071258012115575
2.930192473427176,0.0068354220774499
2.9589198506176384,0.007305460398308
2.9876472278081008,0.0074145620607505
3.0163746049985636,0.0062944762911259
3.045101982189026,0.006850425082788
3.0738293593794883,0.0068442257062288
3.102556736569951,0.0066890666838892
3.1312841137604135,0.0071950413703678
3.160011490950876,0.007171718254279
3.1887388681413387,0.0068726728127892
3.217466245331801,0.0069099868954745
3.2461936225222634,0.0067307206808033
3.274920999712726,0.0063811732291538
3.303648376903189,0.0066762115088917
3.332375754093651,0.0066532047822166
3.3611031312841133,0.0062717606452984
3.389830508474576,0.00769820402455
3.4185578856650385,0.0072044680747473
3.447285262855501,0.0073382570980264
3.4760126400459637,0.0076203117069842
3.504740017236426,0.0075575487945147
3.5334673944268884,0.0073575902300581
3.562194771617351,0.0078303313853636
3.5909221488078136,0.0075586459551853
3.619649525998276,0.0068663297153956
3.648376903188739,0.0068186754106355
3.677104280379201,0.0075938730005022
3.705831657569663,0.0071362109831404
3.7345590347601263,0.0072316946024776
3.7632864119505887,0.0078307185595181
3.792013789141051,0.0074513549706373495
3.820741166331514,0.0076700863916862
3.849468543521976,0.0096858946486981
3.8781959207124386,0.0051535246383037
3.9069232979029014,0.0060229069164284
3.935650675093364,0.0080912454463398
3.964378052283826,0.0066786266099418
3.993105429474289,0.0070124532902441
4.021832806664751,0.0069880312380825
4.050560183855214,0.0066854806707487
4.0792875610456765,0.0071687163362081
4.108014938236138,0.0066897404977015
4.136742315426601,0.0063805745304441
4.165469692617064,0.0068442188666369
4.194197069807526,0.0070667786692619
4.222924446997989,0.0066944832207136
4.251651824188452,0.0075689267556227
4.2803792013789135,0.0072655112724896
4.309106578569376,0.0070697822757133
4.337833955759839,0.0069346511375836
4.366561332950301,0.0071386925004105
4.395288710140764,0.0065571386570177
4.424016087331227,0.0073483918805352
4.452743464521689,0.00718461127722
4.481470841712151,0.0064887302236266
4.510198218902614,0.0066574478629813
4.538925596093076,0.0072618041888692
4.567652973283539,0.0070613138074814
4.596380350474002,0.0070374769994042
4.625107727664464,0.0074727752725644
4.6538351048549265,0.0068951702484013
4.682562482045389,0.0072800226997413
4.711289859235851,0.0071387764983824
4.740017236426314,0.0060404130519803
4.768744613616777,0.0074061784565424
4.797471990807239,0.0066984591951464
4.8261993679977016,0.006375604737559
4.854926745188164,0.0075996661869906
4.883654122378626,0.0074825856744252
4.912381499569089,0.0074209281686664
4.941108876759552,0.0075725916647584
4.969836253950014,0.0074047211313205
4.998563631140477,0.0072921865541735
5.0272910083309394,0.0076590868935754
5.056018385521401,0.007839666064682
5.084745762711864,0.0064391574531162
5.113473139902327,0.0069286126122296
5.142200517092789,0.006223496653447
5.170927894283252,0.0068776255874636
5.199655271473714,0.0069863808973472
5.2283826486641765,0.0064160233538288
5.257110025854639,0.0061643691955471
5.285837403045101,0.0065802113659279
5.314564780235564,0.0069949891910389
5.343292157426027,0.0068498617564825
5.372019534616489,0.0073988101682202
5.4007469118069515,0.0066561661394062
5.429474288997414,0.0068338609199452
5.458201666187876,0.0075046817985523
5.486929043378339,0.0072197852511423
5.515656420568802,0.0066735834095143
5.544383797759264,0.0069746671767103
5.573111174949727,0.0065686211839148
5.601838552140189,0.0064183124305507
5.630565929330651,0.0063914647613011
5.659293306521114,0.0063816986062905
5.688020683711577,0.0060986016086445
5.716748060902039,0.0059239464295836
5.745475438092502,0.0063174838034654
5.7742028152829645,0.0058066925516289
5.8029301924734265,0.0062851711468931
5.831657569663889,0.006772673003257
5.860384946854352,0.0066722776951103
5.889112324044814,0.0066951077144074
5.917839701235277,0.0068414456778137
5.94656707842574,0.0064618477318043
5.9752944556162015,0.0068911806258306
6.004021832806664,0.0070394253422692
6.032749209997127,0.0066777562349097
6.061476587187589,0.0063565007560171
6.090203964378052,0.0064344199632987
6.118931341568515,0.0069740371499596
6.147658718758977,0.0077316943301389
6.176386095949439,0.0081693584399281
6.205113473139902,0.008199328279427
6.233840850330364,0.0084735525939285
6.262568227520827,0.0102810443792547
6.29129560471129,0.0093942820877617
6.320022981901752,0.0095969457784159
6.3487503590922145,0.0100964311612188
6.377477736282677,0.0094687529681264
6.406205113473139,0.0114564104883176
6.434932490663602,0.0095008023855276
6.463659867854065,0.009037635408928517
6.492387245044527,0.0087325059742811
6.52111462223499,0.008289162690553
6.549841999425452,0.0067781779467654
6.578569376615914,0.0073330688320969
6.607296753806377,0.0075418491638118
6.636024130996839,0.0060596611659007
6.664751508187302,0.0063753902391474
6.693478885377765,0.0071366858880442
6.722206262568227,0.0065910051386264
6.750933639758689,0.0050467760719399
6.779661016949152,0.0078240736413886
6.808388394139614,0.0066930626778475
6.837115771330077,0.0059580233644429
6.86584314852054,0.0067492968057181
6.894570525711002,0.0065075414107513
6.9232979029014645,0.006424782770752
6.952025280091927,0.0066804113040218
6.980752657282389,0.0068194450845639
7.009480034472852,0.0070561519854461
7.038207411663315,0.0071552151817692
7.066934788853777,0.0071919161091995
7.09566216604424,0.0073699820542362
7.124389543234702,0.0074800840722159
7.153116920425164,0.0070733339865679
7.181844297615627,0.0072804727444497
7.21057167480609,0.0068733715338245
7.239299051996552,0.0063438709992451
7.268026429187015,0.0064524229797174
7.296753806377477,0.006813307802062
7.325481183567939,0.0062461160807769
7.354208560758402,0.0067473636134539
7.382935937948865,0.0062857929987569
7.411663315139327,0.0061812891088498
7.44039069232979,0.0066941849956626
7.469118069520253,0.006635436170118
7.497845446710715,0.0060693632633401
7.526572823901177,0.0062832557155687
7.55530020109164,0.0065329431207275
7.584027578282102,0.0067205758831405
7.612754955472565,0.006989576124604
7.641482332663028,0.0069921275109431
7.67020970985349,0.0063062946655561
7.698937087043952,0.0070402099785727
7.727664464234415,0.0085440283452498
7.756391841424877,0.0058372642474351
7.78511921861534,0.006835968740157
7.813846595805803,0.0065080424572578
7.842573972996265,0.0065166544295622
7.871301350186728,0.0063953968285543
7.90002872737719,0.0065953510212376
7.928756104567652,0.0059478542919357
7.957483481758115,0.006180030034158
7.986210858948578,0.0062409995734911
8.01493823613904,0.0062082345248315
8.043665613329502,0.0055362707109805
8.072392990519965,0.0061996559125469
8.101120367710427,0.0066097155279038
8.12984774490089,0.0060434533183047
8.158575122091353,0.0065468179713161
8.187302499281815,0.0066373434975022
8.216029876472277,0.0066414656081434
8.24475725366274,0.006894860016455
8.273484630853202,0.0063970978098274
8.302212008043664,0.0063915586308497
8.330939385234128,0.0065908640608669
8.35966676242459,0.0067696386440521
8.388394139615052,0.0069311335697363
8.417121516805516,0.0069740901361887
8.445848893995977,0.0061421954072819
8.47457627118644,0.006592305753677
8.503303648376903,0.0065742351556679
8.532031025567365,0.007080980797879
8.560758402757827,0.006512266872427
8.58948577994829,0.0073068668598727
8.618213157138753,0.0070567505528308
8.646940534329215,0.0072867925806476
8.675667911519678,0.0075987411314051
8.70439528871014,0.0074257460394446
8.733122665900602,0.0074081456402595
8.761850043091066,0.0075157212465583
8.790577420281528,0.0073688401871669
8.81930479747199,0.0071365834709371
8.848032174662453,0.0071570720499248
8.876759551852915,0.0073586236802299
8.905486929043377,0.0069466419332412
8.93421430623384,0.0064104952227064
8.962941683424303,0.0072861660205859
8.991669060614765,0.0069058939242052
9.020396437805228,0.0079270667834493
9.04912381499569,0.007328371603641
9.077851192186152,0.0070259489558775
9.106578569376616,0.0081474471404047
9.135305946567078,0.0069760487290891
9.16403332375754,0.0061350913677519
9.192760700948003,0.0070627612642332
9.221488078138464,0.0065102099043764
9.250215455328927,0.0061423648740447
9.278942832519393,0.0067104847173508
9.307670209709851,0.0068177201083304
9.336397586900317,0.0069507360303948
9.36512496409078,0.007315851848684
9.39385234128124,0.0071540722492713
9.422579718471702,0.0070030760888521
9.451307095662166,0.0073098213324299
9.480034472852628,0.0073044303031422
9.50876185004309,0.0070054674128256
9.537489227233554,0.0072078162248249
9.566216604424016,0.0074619171459667
9.594943981614476,0.0071436692070547
9.62367135880494,0.0068524103165985
9.652398735995405,0.0069330208880002
9.681126113185863,0.0069484996758176
9.709853490376329,0.0071524993259577
9.73858086756679,0.0075928298124907
9.767308244757253,0.0076089778193414
9.796035621947716,0.0077364316247535
9.824762999138178,0.0077293165388983
9.85349037632864,0.0065300988799857
9.882217753519104,0.0069651273861063
9.910945130709566,0.0074830804553376
9.939672507900028,0.007368279650754
9.968399885090491,0.0070745485385903
9.997127262280951,0.006985839023975
10.025854639471415,0.007233010659102
10.05458201666188,0.0077762807796952
10.08330939385234,0.0084721432358166
10.112036771042805,0.0075959984557245
10.140764148233266,0.0074455727801247
10.169491525423728,0.0079234818983461
10.19821890261419,0.007714145437966
10.226946279804654,0.0076467041572593
10.255673656995116,0.0075553857725049
10.284401034185578,0.007503750786423
10.31312841137604,0.0079943406684918
10.341855788566503,0.0083612980325699
10.370583165756964,0.0081161615285302
10.399310542947427,0.0079481649805937
10.428037920137893,0.0079074690195077
10.456765297328351,0.0072484473036485
10.485492674518817,0.0081892412975906
10.51422005170928,0.0077398779841128
10.54294742889974,0.0063201946449219
10.571674806090202,0.0071744528170022
10.600402183280666,0.0073311092242171
10.629129560471128,0.0074085216957901
10.65785693766159,0.0072315706083436
10.686584314852054,0.0075951101973196
10.715311692042516,0.0076138968066337
10.744039069232976,0.0071991980317099
10.77276644642344,0.0078179992712806
10.801493823613905,0.0066851065917603
10.830221200804363,0.0071035876020816
10.858948577994829,0.0076617690900412
10.88767595518529,0.0070870832793141
10.916403332375753,0.0069300454954102
10.945130709566216,0.0075028934934933
10.973858086756678,0.0067605940267555
11.00258546394714,0.0064461068846008
11.031312841137604,0.0070548224814666
11.060040218328066,0.0074864209815841
11.088767595518528,0.0072238558932664
11.117494972708991,0.0076309654889913
11.146222349899451,0.007837308114002
11.174949727089915,0.0075875595873193
11.20367710428038,0.0075114665674068
11.23240448147084,0.0073103333025135
11.261131858661305,0.007349976586734
11.289859235851766,0.0075888683767457
11.318586613042228,0.0076081925246759
11.34731399023269,0.0071405888843835
11.376041367423154,0.0070354149862262
11.404768744613616,0.0072296978095057
11.433496121804078,0.0069337231664348
11.462223498994542,0.007225903841957
11.490950876185003,0.0072133639580379
11.519678253375464,0.0061115153813275
11.548405630565927,0.0068768748192471
11.577133007756393,0.0077903207428321
11.605860384946851,0.0072259940933205
11.634587762137317,0.0075587375819151
11.66331513932778,0.0078636658407198
11.69204251651824,0.0063865718984838
11.720769893708704,0.0071851864401409
11.749497270899166,0.0074084502810513
11.778224648089628,0.006481966583073
11.806952025280092,0.0074375684687676
11.835679402470554,0.00850969488968
11.864406779661016,0.0075875887480449
11.89313415685148,0.007905621146743
11.92186153404194,0.0081391595398902
11.950588911232405,0.007749324216313
11.979316288422869,0.0078706216794462
12.008043665613329,0.0080131926949499
12.03677104280379,0.007406473735749
12.065498419994254,0.0071623005164753
12.094225797184716,0.0073387082622002
12.122953174375178,0.0068808238533841
12.151680551565642,0.0070499713732288
12.180407928756104,0.0072900362711051
12.209135305946566,0.0072984627068379
12.23786268313703,0.0071310152438131
12.266590060327491,0.0076876511079723
12.295317437517951,0.0054744047181409
12.324044814708415,0.0070182680492706
12.35277219189888,0.0072686525302166
12.38149956908934,0.0069649183756103
12.410226946279804,0.0070232418725645
12.438954323470266,0.0073037095816499
12.467681700660728,0.0073799717593012
12.496409077851192,0.0071150721457548
12.525136455041654,0.0073028130685388
12.553863832232116,0.0078919138553414
12.58259120942258,0.0075957561975302
12.611318586613042,0.0078401489122371
12.640045963803503,0.0079677196686525
12.668773340993967,0.007592399616351
12.697500718184427,0.0077437272814741
12.726228095374893,0.0075658956066823
12.754955472565356,0.0074236928481503
12.783682849755817,0.0076498596444696
12.81241022694628,0.0076832159413934
12.841137604136742,0.0064077147893667
12.869864981327204,0.0068983469890192
12.898592358517666,0.0078098936472765
12.92731973570813,0.0073256540720177
12.956047112898592,0.0072320806702953
12.984774490089054,0.0075027681048957
13.013501867279516,0.0071630068273614
13.04222924446998,0.0075007900242068
13.07095662166044,0.0078630630794333
13.099683998850905,0.0068571989193762
13.128411376041369,0.0074482230974985
13.157138753231829,0.0077623944730892
13.185866130422292,0.0069781330223841
13.214593507612754,0.007005002822134
13.243320884803216,0.0072306155435575
13.272048261993678,0.0072855260408499
13.300775639184142,0.0074564799921867
13.329503016374604,0.0076734192244665
13.358230393565066,0.0074894141360037
13.38695777075553,0.0069406936538911
13.415685147945991,0.0069052147372532
13.444412525136451,0.0070770250029224
13.473139902326915,0.0071889268650442
13.50186727951738,0.0081435548299376
13.53059465670784,0.0072309603363576
13.559322033898304,0.0066591099271309
13.588049411088766,0.0087888148054507
13.616776788279228,0.0079860803015875
13.645504165469692,0.0076205248902107
13.674231542660154,0.0080017850645784
13.702958919850616,0.0076861542918297
13.73168629704108,0.0072981558955441
13.76041367423154,0.0076434985228711
13.789141051422003,0.0074953351668871
13.817868428612467,0.0072995717167879
13.846595805802927,0.007606246611179
13.875323182993393,0.0074171903931238
13.904050560183856,0.0065407387809936
13.932777937374317,0.0073037472016835
13.96150531456478,0.0073661564501399
13.990232691755242,0.0070629335378969
14.018960068945704,0.0068644135583891
14.047687446136166,0.0065433191952543
14.07641482332663,0.0071106831379726
14.105142200517092,0.0072343868014098
14.133869577707554,0.0074249997978388
14.162596954898016,0.0072150697950819
14.19132433208848,0.0076173725390543
14.22005170927894,0.0079212667717535
14.248779086469405,0.0077942665575428
14.277506463659869,0.0079994170887662
14.306233840850329,0.0088153098834472
14.334961218040792,0.00849304860526
14.363688595231254,0.0100198415315908
14.392415972421716,0.0108677070368634
14.42114334961218,0.0104063842113836
14.449870726802642,0.0106171375898397
14.478598103993104,0.0109839617111836
14.507325481183567,0.0106859307302244
14.53605285837403,0.0100183332913892
14.564780235564491,0.0097854490517613
14.593507612754957,0.008058367707167
14.622234989945415,0.0072027426146634
14.65096236713588,0.0074163751534787
14.679689744326344,0.0072283728368601
14.708417121516804,0.0068691177088288
14.737144498707266,0.0069366805420631
14.76587187589773,0.0071419430301414
14.794599253088192,0.0069821624510578
14.823326630278654,0.0077046795799429
14.852054007469118,0.0075290958699817
14.88078138465958,0.0072915704871045
14.90950876185004,0.0071951481580728
14.938236139040503,0.0071331636736231
14.966963516230969,0.0069471338584923
14.995690893421427,0.0076175061792148
15.024418270611893,0.007710233209592
15.053145647802356,0.00734236499698
15.081873024992817,0.0070040751849267
15.11060040218328,0.0069432727665021
15.139327779373742,0.0066021122859868
15.168055156564204,0.0070396128487059
15.196782533754668,0.0072144622187071
15.22550991094513,0.0065263948125218
15.254237288135592,0.0066508366333039
15.282964665326055,0.0068292641924217
15.311692042516515,0.0067763681792723
15.34041941970698,0.0070556760195183
15.369146796897445,0.0070514964839263
15.397874174087905,0.0065958688118764
15.426601551278369,0.0069004640630388
15.45532892846883,0.0069497713733015
15.484056305659292,0.0066831275465854
15.512783682849754,0.0067594397944279
15.541511060040218,0.0072226140201034
15.57023843723068,0.00698524237375
15.598965814421142,0.0072729073908447
15.627693191611606,0.007882882720419
15.656420568802067,0.0068730797326188
15.68514794599253,0.0073722224486298
15.713875323182991,0.0089257917770563
15.742602700373457,0.0064557483933874
15.771330077563915,0.0068635772699969
15.80005745475438,0.0075044364408098
15.828784831944844,0.0070556788714613
15.857512209135304,0.0067584673250881
15.886239586325768,0.0073594924657152
15.91496696351623,0.0072637341700154
15.943694340706692,0.0062937618997807
15.972421717897156,0.0072155929281024
16.001149095087616,0.0070039600548053
16.02987647227808,0.0067805580068609
16.058603849468543,0.0070300071461817
16.087331226659003,0.0070168061990245
16.116058603849467,0.0068473049383908
16.14478598103993,0.0069920195651384
16.17351335823039,0.007058680785652
16.202240735420855,0.0067318033901957
16.23096811261132,0.0071214794025191
16.25969548980178,0.0074483419100707
16.288422866992242,0.0067871682823549
16.317150244182706,0.0078297360055314
16.345877621373166,0.0077685276648728
16.37460499856363,0.0075279305349329
16.403332375754093,0.0076883433063564
16.432059752944554,0.0078085951621025
16.460787130135017,0.007276905760128
16.48951450732548,0.0073603038510739
16.51824188451594,0.007710275043927
16.546969261706405,0.0067292442127729
16.57569663889687,0.0064734127219897
16.60442401608733,0.0072349194700146
16.633151393277792,0.0062834001958871
16.661878770468256,0.0067924954945376
16.690606147658716,0.006573512524904
16.71933352484918,0.0061853368885587
16.748060902039644,0.006435376460747
16.776788279230104,0.0071140301981371
16.805515656420567,0.006973421895242
16.83424303361103,0.0068649307438455
16.86297041080149,0.0069570250538411
16.891697787991955,0.0069655666891934
16.92042516518242,0.0065019334570891
16.94915254237288,0.0073109892168534
16.977879919563343,0.0074028020276156
17.006607296753806,0.0071661884993232
17.035334673944266,0.0078090485244133
17.06406205113473,0.0073834534885233
17.092789428325194,0.0075134195685879
17.121516805515654,0.0078427421785455
17.150244182706118,0.0074701357746595
17.17897155989658,0.0070699392437057
17.20769893708704,0.0074430419114053
17.236426314277505,0.0077398927672387
17.26515369146797,0.0070536393904262
17.29388106865843,0.0070490622839695
17.322608445848893,0.0073949128405582
17.351335823039356,0.007214966164021
17.380063200229817,0.0070719636474951
17.40879057742028,0.0074348037198677
17.437517954610744,0.006941995057364
17.466245331801204,0.0065266741567795
17.494972708991668,0.0068553083185721
17.52370008618213,0.007430870346944
17.55242746337259,0.0071711800005924
17.581154840563055,0.0076222004981928
17.60988221775352,0.0070550261745208
17.63860959494398,0.0070699855902419
17.667336972134443,0.0074744138933336
17.696064349324907,0.0075099345099178
17.724791726515367,0.0068008833248437
17.75351910370583,0.0072810431932597
17.782246480896294,0.0074118072506859
17.810973858086754,0.0067504677151906
17.839701235277218,0.0072718503543216
17.86842861246768,0.0074398624397242
17.897155989658142,0.0067066118703108
17.925883366848606,0.0070413945693308
17.95461074403907,0.0078566608079362
17.98333812122953,0.0069713273115596
18.012065498419993,0.0073574145573124
18.040792875610457,0.0084324957079045
18.069520252800917,0.0073325169131908
18.09824762999138,0.0074134536855903
18.126975007181844,0.0080935535511855
18.155702384372304,0.0072816567078086
18.184429761562768,0.0078555343086088
18.213157138753232,0.0080193483432081
18.241884515943692,0.0075246456524628
18.270611893134156,0.0088357738125106
18.29933927032462,0.0108286638406841
18.32806664751508,0.0121851089096875
18.356794024705543,0.0130473022683592
18.385521401896007,0.0133980535111037
18.414248779086467,0.01326176823588
18.44297615627693,0.0134618597438757
18.47170353346739,0.0136791792836236
18.500430910657855,0.0125322631621347
18.52915828784832,0.0110647670071782
18.557885665038786,0.0101143142638876
18.58661304222924,0.007519558475696
18.615340419419702,0.0078847743207668
18.64406779661017,0.007714248775464
18.67279517380063,0.007004943042984
18.701522550991093,0.0069454269390287
18.730249928181557,0.0073828765372929
18.758977305372017,0.0066293271293625
18.78770468256248,0.0066427098711322
18.816432059752945,0.0068954066652913
18.845159436943405,0.0066007606884005
18.87388681413387,0.0060705733015524
18.902614191324332,0.0074835364520908
18.931341568514792,0.00703934564566
18.960068945705256,0.0060459721757479
18.98879632289572,0.0068143711651985
19.01752370008618,0.0072608297443084
19.046251077276644,0.0065804449943413
19.074978454467107,0.0071600847287788
19.103705831657567,0.0075717788259301
19.13243320884803,0.0071128050815302
19.161160586038495,0.0071054365495001
19.189887963228955,0.0075100667972414
19.21861534041942,0.0073720159468472
19.24734271760988,0.0070758669980973
19.276070094800343,0.0072833955566147
19.30479747199081,0.0068674193518087
19.33352484918127,0.0069716446879723
19.36225222637173,0.0072359340393432
19.390979603562194,0.0069710100302794
19.419706980752657,0.0069952128813839
19.44843435794312,0.0074633807285154
19.47716173513358,0.0074289091016787
19.505889112324045,0.0073175955440535
19.534616489514505,0.0073665212878726
19.56334386670497,0.0071203964514194
19.592071243895433,0.0067578814408742
19.620798621085893,0.0075568736551432
19.649525998276356,0.0069619179742554
19.67825337546682,0.0065178004620902
19.70698075265728,0.007455795930579
19.735708129847744,0.0070929009627758
19.764435507038208,0.0069627235226791
19.793162884228668,0.0072187159252011
19.82189026141913,0.007571413016077
19.850617638609595,0.0071758015067741
19.879345015800055,0.0071223979455176
19.90807239299052,0.0070299961408574
19.936799770180983,0.0070482367729305
19.965527147371443,0.0070252198041028
19.994254524561907,0.0069156680942134
20.02298190175237,0.0069242049277822
20.05170927894283,0.007064101303307
20.080436656133298,0.0069523569608045
20.10916403332376,0.0068435464855635
20.137891410514214,0.0070400391203562
20.16661878770468,0.0064858300411894
20.195346164895145,0.0064435363002173
20.224073542085605,0.0065344585074117
20.25280091927607,0.0069633439404555
20.281528296466533,0.0070689309232067
20.310255673656993,0.0074406495557279
20.338983050847457,0.0076139903349013
20.36771042803792,0.0074347389722906
20.39643780522838,0.0078597337100154
20.425165182418844,0.0080671587647058
20.453892559609308,0.0068035346805471
20.482619936799768,0.0069592361870172
20.511347313990232,0.0067030675865995
20.540074691180696,0.0069180654695533
20.568802068371156,0.0069068980890082
20.59752944556162,0.0067035330980272
20.62625682275208,0.0065393088005727
20.654984199942543,0.0068999158444865
20.683711577133007,0.0073456332746581
20.712438954323467,0.0067005333264984
20.74116633151393,0.0069684515310424
20.76989370870439,0.0070817184835559
20.798621085894855,0.0066710407249794
20.82734846308532,0.0068171746554013
20.856075840275786,0.0068489027543776
20.88480321746624,0.0069769602618904
20.913530594656702,0.0062340363208614
20.94225797184717,0.0068473599170865
20.97098534903763,0.0060384250495376
20.999712726228093,0.0076131236963842
21.028440103418557,0.0075292872269654
21.057167480609017,0.0070192537731472
21.08589485779948,0.0072256615428128
21.114622234989945,0.0072937571692012
21.143349612180405,0.0073954472475323
21.17207698937087,0.0076615703804157
21.200804366561332,0.0074637884869061
21.229531743751792,0.0070391595254739
21.258259120942256,0.0070526859336691
21.28698649813272,0.0069902375892315
21.31571387532318,0.0065260350794185
21.344441252513644,0.0070826917101529
21.373168629704107,0.0072961516663484
21.401896006894567,0.0070794679286359
21.43062338408503,0.0072157687915093
21.459350761275495,0.0074306223111604
21.488078138465955,0.0072185928984095
21.51680551565642,0.0070049302953097
21.54553289284688,0.0073078163196722
21.574260270037342,0.007466908861173
21.60298764722781,0.0072888464614036
21.63171502441827,0.0072420588856956
21.66044240160873,0.0077979896643009
21.689169778799194,0.0064265621828078
21.717897155989657,0.0069897346186109
21.74662453318012,0.0072609297128061
21.77535191037058,0.0069061021325266
21.804079287561045,0.0069277721841229
21.832806664751505,0.0069418734945111
21.86153404194197,0.0066967940916319
21.890261419132433,0.0068619484332364
21.918988796322893,0.0071599736096836
21.947716173513356,0.0068875529722349
21.97644355070382,0.0069304712583005
22.00517092789428,0.0070176670259404
22.033898305084744,0.0064872222003792
22.062625682275208,0.0071012218336822
22.091353059465668,0.0070059025346919
22.12008043665613,0.0068855168371538
22.148807813846595,0.0070029713925816
22.177535191037055,0.0071654313532883
22.20626256822752,0.0069733331120452
22.234989945417983,0.0070259945193818
22.263717322608443,0.0079467503152636
22.292444699798907,0.0075104081668661
22.32117207698937,0.0077383328256226
22.34989945417983,0.008459909932168
22.378626831370298,0.0085167222201041
22.40735420856076,0.0086767743907773
22.436081585751214,0.0094969831004282
22.46480896294168,0.0104384426110644
22.493536340132145,0.0106003425851782
22.522263717322605,0.0109815651650175
22.55099109451307,0.010860797135053
22.579718471703533,0.0105023918438433
22.608445848893993,0.0105798908214598
22.637173226084457,0.0094260860591832
22.66590060327492,0.0086538592129192
22.69462798046538,0.0085747734432156
22.723355357655844,0.00775740568523
22.752082734846308,0.0080688440198173
22.780810112036768,0.0083162457458399
22.809537489227232,0.00787760135915
22.838264866417695,0.0081734207947193
22.866992243608156,0.0080264507235432
22.89571962079862,0.0077510945718217
22.924446997989083,0.0079067083795397
22.953174375179543,0.0074537369189543
22.981901752370007,0.0071701221427378
23.01062912956047,0.0058125518430399
23.03935650675093,0.0069339136578266
23.06808388394139,0.0072097943266944
23.096811261131855,0.0064326364682584
23.12553863832232,0.0074874824813746
23.154266015512786,0.0080968162790961
23.18299339270325,0.0064259716450121
23.211720769893702,0.0073410425066579
23.24044814708417,0.0075376391624618
23.269175524274633,0.0067196194898388
23.297902901465093,0.0071104258598217
23.326630278655557,0.0071597194535753
23.35535765584602,0.0067559397985453
23.38408503303648,0.0067126098212525
23.412812410226945,0.0071313592709732
23.44153978741741,0.0066743785170133
23.47026716460787,0.0071933861278293
23.498994541798332,0.0064969590692886
23.527721918988796,0.0070645231965363
23.556449296179256,0.0074662957962278
23.58517667336972,0.0068200947911686
23.613904050560183,0.0068840174251153
23.642631427750644,0.0068479877655517
23.671358804941107,0.0070696176299118
23.70008618213157,0.0070620806029054
23.72881355932203,0.0063465686281958
23.757540936512495,0.0066698373983134
23.78626831370296,0.006435877384756
23.81499569089342,0.0069529106834582
23.84372306808388,0.0069215460956185
23.872450445274342,0.0068566911940046
23.90117782246481,0.0068129696843012
23.92990519965527,0.006512724285923
23.958632576845737,0.0065838286750413
23.987359954036194,0.0071834280903569
24.016087331226657,0.0070705754413473
24.04481470841712,0.0071931772027736
24.07354208560758,0.0072638134314484
24.102269462798045,0.0071218389404747
24.13099683998851,0.0072029173751608
24.15972421717897,0.0075026213779577
24.188451594369432,0.0069906705651768
24.217178971559896,0.0067047756851251
24.245906348750356,0.006879117255389
24.27463372594082,0.0067917989648427
24.303361103131284,0.0065715908467457
24.332088480321744,0.0069569484992567
24.360815857512208,0.0069617216693561
24.38954323470267,0.0066342768878603
24.41827061189313,0.0070106767419693
24.446997989083595,0.0070882943566228
24.47572536627406,0.0067345613656382
24.50445274346452,0.0071973423281146
24.533180120654983,0.0071842522598688
24.561907497845446,0.006936514797589
24.590634875035907,0.0069611482880286
24.61936225222637,0.0072328617657352
24.64808962941683,0.007206184240638
24.676817006607298,0.0062945783900673
24.70554438379776,0.0068938889496483
24.73427176098822,0.006160613691564
24.76299913817868,0.007267521237286
24.791726515369145,0.0071076192785696
24.82045389255961,0.0069708553428857
24.84918126975007,0.0073220378892598
24.877908646940533,0.0075400112568282
24.906636024130997,0.0071373183059625
24.935363401321457,0.0070935009116093
24.96409077851192,0.0071811839604787
24.992818155702384,0.0072931759211337
25.021545532892844,0.0073544070563922
25.050272910083308,0.0072721416499318
25.07900028727377,0.0068569504549506
25.10772766446423,0.0068234724489618
25.136455041654695,0.0069472290555087
25.16518241884516,0.0068860643402658
25.19390979603562,0.0069760629380914
25.222637173226083,0.0068951553088406
25.251364550416547,0.0065033702660251
25.280091927607007,0.0064098888973634
25.30881930479747,0.0068994423017315
25.337546681987934,0.0071722390164751
25.36627405917839,0.0066051423137218
25.395001436368855,0.0070485956711903
25.42372881355932,0.006607638890722
25.452456190749785,0.0072574620299476
25.48118356794025,0.0075762688480196
25.50991094513071,0.0066287089985985
25.53863832232117,0.0067892127135032
25.567365699511633,0.0075199285651466
25.596093076702097,0.0066457082920781
25.624820453892557,0.0068836400640057
25.65354783108302,0.0071990741292703
25.682275208273484,0.0068654144256017
25.711002585463945,0.0063541382508552
25.73972996265441,0.0071371912381999
25.768457339844872,0.0069344750986162
25.797184717035332,0.0066296794935752
25.825912094225796,0.0067047174481016
25.85463947141626,0.0068975529235006
25.88336684860672,0.0067287872160804
25.912094225797183,0.0070350679750757
25.940821602987647,0.0055693258248239
25.969548980178107,0.0051072063680655
25.99827635736857,0.0075472507707134
26.027003734559035,0.0067098143184401
26.055731111749495,0.0058917364178224
26.08445848893996,0.006992915180477
26.113185866130426,0.0074620455451065
26.14191324332088,0.0065155380251063
26.170640620511342,0.0071144971128853
26.19936799770181,0.0082321431424188
26.22809537489227,0.0071587527885436
26.256822752082737,0.0073281888511869
26.285550129273197,0.00660931950923
26.314277506463657,0.0071938567169445
26.34300488365412,0.0104783835455562
26.371732260844585,0.0093989575974011
26.400459638035045,0.0096278836011322
26.42918701522551,0.0109096469344549
26.457914392415972,0.0120239751049413
26.486641769606432,0.011874253927619
26.515369146796896,0.0125083864334006
26.544096523987356,0.0119837010441781
26.57282390117782,0.0117244961057426
26.601551278368284,0.0110264612285107
26.630278655558744,0.0114358521098779
26.659006032749208,0.0074689266140413
26.68773340993967,0.0079611801643215
26.71646078713013,0.0095653687044067
26.745188164320595,0.0071017603861951
26.77391554151106,0.0075615596119782
26.80264291870152,0.0077113933447851
26.831370295891983,0.0076002905789514
26.860097673082446,0.0077649845690859
26.888825050272903,0.0077936003481249
26.91755242746337,0.006708562957212
26.94627980465383,0.006857365623063
26.975007181844298,0.0075075113110565
27.00373455903476,0.007361890080679
27.03246193622522,0.0074679977585082
27.06118931341568,0.0073783892094449
27.089916690606145,0.0073728636582937
27.11864406779661,0.0076074349711543
27.14737144498707,0.0074300425687144
27.176098822177533,0.0074319393506826
27.204826199367997,0.0077563985964683
27.233553576558457,0.0073313209303945
27.26228095374892,0.0068199019442471
27.291008330939384,0.0070516226290821
27.319735708129844,0.0072682781568318
27.348463085320308,0.0071588220350691
27.37719046251077,0.007064154974094
27.40591783970123,0.0075448694467449
27.434645216891695,0.0067590467454907
27.46337259408216,0.007002070930745
27.49209997127262,0.0071462885418413
27.520827348463083,0.0066744977045927
27.549554725653547,0.0064374884052553
27.578282102844007,0.0073708223505247
27.60700948003447,0.0068689033641994
27.635736857224934,0.0066896257945024
27.66446423441539,0.0072521283887205
27.693191611605855,0.0074582516612097
27.72191898879632,0.0066677465706718
27.750646365986785,0.0074563172258286
27.77937374317725,0.0071173861419775
27.80810112036771,0.0067341177688419
27.83682849755817,0.0069814541918034
27.865555874748633,0.0070221288370775
27.894283251939097,0.007249639691256
27.923010629129557,0.0077286764340965
27.95173800632002,0.0067370135510022
27.980465383510484,0.0070419979024975
28.009192760700945,0.0073991800705113
28.03792013789141,0.0074874958330637
28.066647515081872,0.0076543822459711
28.095374892272332,0.0082345004296461
28.124102269462796,0.0064939483055124
28.15282964665326,0.0070463386050744
28.18155702384372,0.0078943692811331
28.210284401034183,0.0076418503997808
28.239011778224647,0.0076058449732267
28.267739155415107,0.0079550065887691
28.29646653260557,0.0078158910552141
28.325193909796035,0.0073649924576609
28.353921286986495,0.0083082033716294
28.38264866417696,0.0077598960924376
28.411376041367426,0.0068582305078511
28.44010341855788,0.0081667424608979
28.468830795748342,0.0081208994710147
28.49755817293881,0.0078738612980317
28.52628555012927,0.0084112061671904
28.555012927319737,0.0082601160902794
28.583740304510197,0.0079901197893276
28.612467681700657,0.0081217119864774
28.64119505889112,0.007588409024417
28.669922436081585,0.0074736071932614
28.698649813272045,0.0077997520101904
28.72737719046251,0.0074361740431481
28.756104567652972,0.0071140311275496
28.784831944843432,0.0073562590429444
28.813559322033896,0.0075125406751686
28.84228669922436,0.0068604234255067
28.87101407641482,0.0070975127105319
28.899741453605284,0.0070008788726449
28.928468830795747,0.0064334216024167
28.957196207986208,0.0065899497866911
28.98592358517667,0.0069954650918175
29.014650962367135,0.0065800906982075
29.043378339557595,0.0077096558814674
29.07210571674806,0.0072055558966568
29.10083309393852,0.0071391401053296
29.129560471128983,0.0074440006817338
29.158287848319446,0.0078035411374923
29.18701522550991,0.0075650417658193
29.21574260270037,0.0078004828219478
29.24446997989083,0.0081378337653356
29.273197357081298,0.0077162778874955
29.30192473427176,0.0086054334292448
29.33065211146222,0.0085156472196571
29.359379488652685,0.0081516230967984
29.388106865843145,0.0079744513177584
29.41683424303361,0.007933093678417
29.445561620224073,0.0078748130002488
29.474288997414533,0.0084249299282776
29.503016374604996,0.0086357781883747
29.53174375179546,0.0078742782200911
29.56047112898592,0.0074833740957761
29.589198506176384,0.0087739952834528
29.617925883366848,0.0081593291161861
29.646653260557308,0.0079293735397366
29.67538063774777,0.0074484008284852
29.704108014938235,0.0072619829228466
29.732835392128695,0.0075106170130249
29.76156276931916,0.0075211639210168
29.790290146509623,0.0072317412532568
29.819017523700083,0.0072856137336645
29.847744900890547,0.0076056086245774
29.87647227808101,0.0070648521018139
29.90519965527147,0.0070071042204626
29.933927032461938,0.0072297653754637
29.9626544096524,0.0068920852372607
29.991381786842854,0.0072110123629033
30.02010916403332,0.0080014087598835
30.048836541223785,0.0068988662473903
30.07756391841425,0.0070266415893853
30.10629129560471,0.0084366880475759
30.135018672795173,0.0068757973683185
30.163746049985633,0.0075714214247656
30.192473427176097,0.0078862858630969
30.22120080436656,0.0072868984607713
30.24992818155702,0.0073684907508901
30.278655558747484,0.0083946947234022
30.307382935937948,0.0080831704580634
30.336110313128408,0.0084328356235551
30.364837690318872,0.009340044463477
30.393565067509336,0.0101680925846568
30.422292444699796,0.0106301131694559
30.45101982189026,0.0111064681112583
30.479747199080723,0.0125249950086387
30.508474576271183,0.012774161306958
30.537201953461647,0.0127968910588132
30.56592933065211,0.0139628436572047
30.59465670784257,0.0123253076051367
30.623384085033035,0.0117603618241822
30.6521114622235,0.0118285415306045
30.68083883941396,0.0115350033327778
30.709566216604426,0.0106355865927144
30.73829359379489,0.0099775217791246
30.767020970985342,0.0092247260191806
30.79574834817581,0.0085380209652987
30.824475725366273,0.0088137670362582
30.853203102556733,0.0083917192629235
30.881930479747197,0.0084287930170553
30.91065785693766,0.0085441660350092
30.93938523412812,0.0082144819127741
30.968112611318585,0.0081062163534588
30.99683998850905,0.0081852812099394
31.02556736569951,0.007909298120675
31.054294742889972,0.0078762343972785
31.083022120080436,0.0079496008707451
31.111749497270896,0.0077125400562666
31.14047687446136,0.0074741938400915
31.169204251651824,0.0079452859426089
31.197931628842284,0.0074258739289205
31.226659006032747,0.0079329407873386
31.25538638322321,0.0080242597234443
31.28411376041367,0.0079741285522427
31.312841137604135,0.0080405805194893
31.3415685147946,0.0089378633563583
31.37029589198506,0.0082572759338782
31.39902326917552,0.0078595162275215
31.427750646365983,0.0089602617008819
31.456478023556446,0.0081464394641221
31.48520540074691,0.0078741849895238
31.513932777937377,0.0082745902452497
31.54266015512783,0.0078571957045919
31.571387532318298,0.0073028408394904
31.60011490950876,0.0083570578650808
31.62884228669922,0.0076891161100962
31.657569663889685,0.0071312012741198
31.68629704108015,0.0077744334945281
31.71502441827061,0.0077854890567699
31.743751795461073,0.0074849544426425
31.772479172651536,0.0082153308439577
31.801206549841996,0.0079229048164173
31.82993392703246,0.0076836420912913
31.858661304222924,0.008178984454937
31.887388681413384,0.0079889854528262
31.916116058603848,0.0076264278659396
31.94484343579431,0.0080061009673461
31.97357081298477,0.0074023449873797
32.00229819017523,0.0069721533472385
32.031025567365695,0.0076911608523306
32.05975294455616,0.007502352253688
32.08848032174662,0.0072706585649801
32.11720769893709,0.0073013049441603
32.14593507612755,0.007516813088298
32.17466245331801,0.007482627332535
32.20338983050847,0.0076981834533169
32.232117207698934,0.0082023566711105
32.2608445848894,0.0078604203069868
32.28957196207986,0.007389285428611
32.318299339270325,0.0083054993021007
32.34702671646078,0.0079164216358985
32.375754093651246,0.0072188816819761
32.40448147084171,0.0080931385343112
32.43320884803217,0.0077905955869356
32.46193622522264,0.0076738250901018
32.4906636024131,0.0080616593556895
32.51939097960356,0.0075875048595242
32.54811835679402,0.0075575969446425
32.576845733984484,0.0082967719249593
32.60557311117495,0.0079947134287413
32.63430048836541,0.0080440906464349
32.663027865555875,0.0084799768977653
32.69175524274633,0.0082568819029671
32.720482619936796,0.0082056083035065
32.74920999712726,0.0088943186735503
32.77793737431772,0.0082019328570144
32.80666475150819,0.0081940677837386
32.83539212869865,0.008672129690233
32.86411950588911,0.0084802740792887
32.89284688307957,0.0079315356496525
32.921574260270035,0.0084296909149034
32.9503016374605,0.0090440268414744
32.97902901465096,0.0087331947755446
33.007756391841426,0.0089536461946479
33.03648376903188,0.0092332714216546
33.065211146222346,0.0087043279283888
33.09393852341281,0.0091095582231046
33.12266590060327,0.0086897197693531
33.15139327779374,0.0080116048925995
33.1801206549842,0.0087554369182895
33.20884803217466,0.0087456680201857
33.23757540936512,0.007547357866476
33.266302786555585,0.0096143378484066
33.29503016374605,0.0088882021103239
33.32375754093651,0.0079215156734455
33.352484918126976,0.0085158227777602
33.38121229531743,0.0085388619702899
33.409939672507896,0.0067494144094485
33.43866704969836,0.0092856713616423
33.46739442688882,0.0092857760272077
33.49612180407929,0.0079470917422748
33.52484918126975,0.0082468090254478
33.55357655846021,0.008888516367487
33.58230393565067,0.0077582875804031
33.611031312841135,0.0081178336076582
33.6397586900316,0.0086466411215498
33.66848606722206,0.0081654998457348
33.697213444412526,0.0074805469423223
33.72594082160298,0.009251357053761
33.754668198793446,0.0083124819315753
33.78339557598391,0.0083833586802972
33.812122953174374,0.0088190996086731
33.84085033036484,0.0081053327298125
33.8695777075553,0.0080904017497195
33.89830508474576,0.0089643693312449
33.92703246193622,0.0085742725997097
33.955759839126685,0.0079116007135271
33.98448721631715,0.0086171422518122
34.01321459350761,0.0094754858039367
34.041941970698076,0.0079816487661971
34.07066934788853,0.0090919898026356
34.099396725078996,0.0109734736135713
34.12812410226946,0.0074176543628228
34.156851479459924,0.0079729706621713
34.18557885665039,0.0101863340853726
34.21430623384085,0.0089580368334486
34.24303361103131,0.0068539855551398
34.27176098822177,0.0101388265900036
34.300488365412235,0.0084299474231805
34.3292157426027,0.0087107383225871
34.35794311979316,0.0085742038328483
34.386670496983626,0.008012951571081
34.41539787417408,0.0080944771957942
34.44412525136455,0.0082778173217076
34.47285262855501,0.0084295547127812
34.501580005745474,0.0110904686319544
34.53030738293594,0.0135016318073339
34.5590347601264,0.012050844873093
34.58776213731686,0.0121919247251883
34.61648951450732,0.012282814533173
34.645216891697785,0.0120291117483481
34.67394426888825,0.0114669065725233
34.70267164607871,0.0122907445636346
34.73139902326918,0.0101865305061136
34.76012640045963,0.0065959294023897
34.7888537776501,0.0082319833006932
34.81758115484056,0.0084249371095714
34.846308532031024,0.0072059014509095
34.87503590922149,0.0090891449056956
34.90376328641195,0.0086169438691829
34.93249066360241,0.009527853675732
34.96121804079287,0.009307471796361
34.989945417983336,0.008678223091843
35.0186727951738,0.0088722823181759
35.04740017236426,0.0095627918484978
35.07612754955473,0.0091914941199004
35.10485492674518,0.0087137706885902
35.13358230393565,0.0092066647658822
35.16230968112611,0.009199608777791
35.191037058316574,0.009172428886313
35.21976443550704,0.0089544451855724
35.2484918126975,0.0091019435686608
35.27721918988796,0.0080105414090809
35.30594656707842,0.008156443484392
35.334673944268886,0.0084148309029644
35.36340132145935,0.0084547399496724
35.39212869864981,0.0079042447757162
35.42085607584027,0.0081099479270718
35.44958345303073,0.0087283667069969
35.4783108302212,0.0086361716576839
35.50703820741166,0.0085060648468825
35.535765584602125,0.0078690350973665
35.56449296179259,0.007683895045833
35.593220338983045,0.0090635142076031
35.62194771617351,0.0085349734610395
35.65067509336397,0.0085016937024808
35.679402470554436,0.008454995011005
35.7081298477449,0.0077494207473597
35.73685722493536,0.00736179414866
35.76558460212582,0.0081210069087084
35.794311979316284,0.0089315935133019
35.82303935650675,0.0077418571451134
35.85176673369721,0.0069215188470532
35.880494110887675,0.0089054670938695
35.90922148807814,0.008315818167522
35.937948865268595,0.0083612133727358
35.96667624245906,0.0085861696014974
35.99540361964952,0.008068494396864
36.024130996839986,0.0084214484877151
36.05285837403045,0.0082187132821302
36.08158575122091,0.0078079752878786
36.11031312841137,0.0082677642082495
36.139040505601834,0.0083858864391365
36.1677678827923,0.0076525703266163
36.19649525998276,0.007848242192281
36.225222637173225,0.0085122246262411
36.25395001436369,0.0078907077766551
36.282677391554145,0.0078906705598308
36.31140476874461,0.0095544243854107
36.34013214593507,0.0078571357794055
36.368859523125536,0.0071357448774966
36.397586900316,0.0091893176219366
36.426314277506464,0.0084441213733127
36.45504165469692,0.0076007918702502
36.483769031887384,0.0081929096130519
36.51249640907785,0.0083290015509005
36.54122378626831,0.0079773856388355
36.569951163458775,0.0087204816773327
36.59867854064924,0.0098770861355008
36.627405917839695,0.0069838966541066
36.65613329503016,0.0078834852248767
36.68486067222062,0.0080771829983095
36.713588049411086,0.0080116389335839
36.74231542660155,0.0083294531547304
36.771042803792014,0.0083300325153882
36.79977018098247,0.007987706417574
36.828497558172934,0.0072386090836798
36.8572249353634,0.0096482111100821
36.88595231255386,0.0082289011073935
36.914679689744325,0.0092498479579438
36.94340706693479,0.0088147667126887
36.972134444125246,0.0084807381362645
37.00086182131571,0.0087063084146067
37.02958919850617,0.0089063417326033
37.05831657569664,0.0075209580526783
37.0870439528871,0.0086620692120225
37.11577133007757,0.0083166758479232
37.14449870726802,0.0080409587992724
37.17322608445848,0.0082914992628469
37.20195346164895,0.0084704422237333
37.23068083883941,0.0076330814512857
37.259408216029875,0.0077996032242457
37.28813559322034,0.0082128873441989
37.3168629704108,0.0075042772271318
37.34559034760126,0.0081683327258315
37.37431772479172,0.0081640206247444
37.40304510198219,0.0076034039992612
37.43177247917265,0.0078899529655529
37.460499856363114,0.0085104437302633
37.48922723355357,0.0080742020628278
37.517954610744034,0.0075337415446962
37.5466819879345,0.0075160520278244
37.57540936512496,0.008195084211761
37.604136742315426,0.0075612281068981
37.63286411950589,0.0082670895416571
37.661591496696346,0.0083068334929588
37.69031887388681,0.0076690001893636
37.71904625107727,0.0080726661223678
37.74777362826774,0.0080859026832651
37.7765010054582,0.0082734671418563
37.805228382648664,0.0087271527770998
37.83395575983912,0.0085412982943563
37.862683137029585,0.0084127967557564
37.89141051422005,0.0084864079649483
37.92013789141051,0.0083365815415133
37.948865268600976,0.0073636156738167
37.97759264579144,0.0081733436011585
38.006320022981896,0.0091404916766742
38.03504740017236,0.0081393513453093
38.06377477736282,0.0082520468651929
38.09250215455329,0.0086070489932588
38.12122953174375,0.0080218519922235
38.149956908934215,0.0078842596875835
38.17868428612467,0.0082951448778704
38.207411663315135,0.0078720612414424
38.2361390405056,0.0082982130811103
38.26486641769606,0.0087952677332276
38.293593794886526,0.0083228843861878
38.32232117207699,0.0083178735901735
38.351048549267446,0.0095846132710615
38.37977592645791,0.008113666305665
38.408503303648374,0.0074857176094014
38.43723068083884,0.0086569634770592
38.4659580580293,0.0101557761454127
38.494685435219765,0.0117665098004822
38.52341281241022,0.0120473391161449
38.552140189600685,0.0121251437469613
38.58086756679115,0.0120491144606234
38.60959494398161,0.0125006076304563
38.63832232117208,0.0122536815784231
38.66704969836254,0.0109610875761562
38.69577707555299,0.0094728440560418
38.72450445274346,0.0085299605673757
38.75323182993392,0.0080980664751257
38.78195920712439,0.0081168529298211
38.81068658431485,0.0081405896759458
38.839413961505315,0.007359486665653
38.86814133869577,0.0075492441561002
38.896868715886235,0.0082813670477051
38.9255960930767,0.0078361531018167
38.95432347026716,0.0077626432679532
38.983050847457626,0.0079316122760244
39.01177822464809,0.0076998469371989
39.04050560183855,0.0078008073559713
39.06923297902901,0.0080456022624067
39.097960356219474,0.0073002843611997
39.12668773340994,0.0069767871054285
39.1554151106004,0.0074495924002229
39.184142487790865,0.0077728768044648
39.21286986498132,0.0076864275405507
39.241597242171785,0.008378858789893
39.27032461936225,0.0083489533997339
39.29905199655271,0.0080263313822903
39.32777937374318,0.0080866365511468
39.35650675093364,0.0086963252361612
39.3852341281241,0.0076044193319354
39.41396150531456,0.0077223925184921
39.442688882505024,0.0080516335791636
39.47141625969549,0.0074448536826159
39.50014363688595,0.0074936796249597
39.528871014076415,0.0079716682262312
39.55759839126687,0.007631633399278
39.586325768457336,0.0079064625215983
39.6150531456478,0.0086267075754676
39.64378052283826,0.0082740497199082
39.67250790002873,0.0083563366183152
39.70123527721919,0.0084452214371719
39.72996265440965,0.0080459845618794
39.75869003160011,0.0078993193870827
39.787417408790574,0.0080012093479312
39.81614478598104,0.0079370081195072
39.8448721631715,0.0080239508119584
39.873599540361965,0.0083429110176516
39.90232691755242,0.0080475671914375
39.931054294742886,0.0078106736876654
39.95978167193335,0.0080894376803014
39.98850904912381,0.0080388095844227
40.01723642631428,0.0078183454277723
40.04596380350474,0.0083354667751699
40.0746911806952,0.006941962477996
40.10341855788566,0.0081830342283606
40.132145935076124,0.0094744920177163
40.16087331226659,0.0076812635596222
40.18960068945705,0.0079335002389426
40.21832806664752,0.00998231662687
40.24705544383797,0.0075121355654433
40.27578282102843,0.0077632426571736
40.3045101982189,0.0091044819846495
40.33323757540936,0.0086640043400744
40.36196495259983,0.0081084867293677
40.39069232979029,0.0086562218954699
40.41941970698075,0.0086667528455029
40.44814708417121,0.0078435129683105
40.476874461361675,0.0080034673524504
40.50560183855214,0.008135232641877
40.5343292157426,0.0077732771856945
40.563056592933066,0.0078601536846977
40.59178397012352,0.0084419519790498
40.620511347313986,0.0080247421057746
40.64923872450445,0.0078834956390995
40.67796610169491,0.0082631566318922
40.70669347888538,0.007971506019501
40.73542085607584,0.0077886760699628
40.7641482332663,0.0086283931436556
40.79287561045676,0.0075327263034358
40.821602987647225,0.0075233687707999
40.85033036483769,0.007781864381522
40.87905774202815,0.0074374673828594
40.907785119218616,0.0073127294239741
40.93651249640907,0.0077533810742585
40.965239873599536,0.0081035383204422
40.99396725079,0.0074322210783706
41.022694627980464,0.0074844966965877
41.05142200517093,0.0078203114225481
41.08014938236139,0.0075208678317115
41.10887675955185,0.0076473444076322
41.13760413674231,0.0083789341706513
41.166331513932775,0.008073637044879
41.19505889112324,0.0074586962353553
41.2237862683137,0.0079557904128747
41.25251364550416,0.0074276016356614
41.28124102269462,0.0074186554299082
41.309968399885086,0.0076067637681987
41.33869577707555,0.0083548120925019
41.367423154266014,0.0075851527878999
41.39615053145648,0.0081742401771011
41.424877908646934,0.0074760525017584
41.4536052858374,0.0076540354929935
41.48233266302786,0.0079518830494821
41.511060040218325,0.0077900391803314
41.53978741740879,0.0074927467375545
41.56851479459925,0.0078544324406934
41.59724217178971,0.0079713790146327
41.62596954898017,0.0073493385980807
41.65469692617064,0.0075321041349519
41.6834243033611,0.0075921291167962
41.71215168055157,0.0077836127632609
41.74087905774203,0.0079385733851433
41.76960643493248,0.0075676131568267
41.79833381212295,0.0070708480475379
41.82706118931341,0.0072091391907935
41.855788566503875,0.0076234969606583
41.88451594369434,0.0068745949658687
41.9132433208848,0.0065672618824611
41.94197069807526,0.0087374528521232
41.97069807526572,0.0078832222802919
41.99942545245619,0.0072903305702491
42.02815282964665,0.0079529766855622
42.056880206837114,0.0077688274611135
42.08560758402758,0.0075380973682466
42.114334961218034,0.0073930841603704
42.1430623384085,0.0084041321900046
42.17178971559896,0.0074851411243757
42.200517092789426,0.0073033067961175
42.22924446997989,0.0092056906950877
42.25797184717035,0.006139011435151
42.28669922436081,0.0060477603921524
42.31542660155127,0.0077255170184914
42.34415397874174,0.0071027997426128
42.3728813559322,0.0086831294015898
42.401608733122664,0.0079437820149689
42.43033611031313,0.0080820749814063
42.459063487503585,0.0082501035733533
42.48779086469405,0.00844107923587
42.51651824188451,0.0094474793779278
42.545245619074976,0.0107275599418211
42.57397299626544,0.0108581783751095
42.6027003734559,0.0103797256955573
42.63142775064636,0.0106406806070937
42.66015512783682,0.010706794443661
42.68888250502729,0.0106700636251387
42.71760988221775,0.0100937890468821
42.746337259408214,0.0084988928786074
42.77506463659868,0.0075485850774
42.803792013789135,0.0076452190643947
42.8325193909796,0.0080099315210433
42.86124676817006,0.0077544662491813
42.889974145360526,0.0073892865828255
42.91870152255099,0.0073592030686198
42.94742889974145,0.0074212457208661
42.97615627693191,0.007404173304364
43.004883654122374,0.0076124870818035
43.03361103131284,0.0076051256193882
43.0623384085033,0.0074942294658022
43.091065785693765,0.0079069046502263
43.11979316288423,0.0080984836192753
43.148520540074685,0.0083580731445553
43.17724791726515,0.0086784009555548
43.20597529445561,0.0085170419827839
43.23470267164608,0.0080940958307923
43.26343004883654,0.0081534688080589
43.292157426027,0.0088173350622293
43.32088480321746,0.0082809691819932
43.34961218040792,0.0081272612795879
43.37833955759839,0.0079988344343829
43.40706693478885,0.007497426899715
43.435794311979315,0.0073783774991921
43.46452168916978,0.007502765326581
43.493249066360235,0.0073354234352092
43.5219764435507,0.0072259370286562
43.55070382074116,0.0069582873975011
43.579431197931626,0.0061301388022156
43.60815857512209,0.0076577491956173
43.636885952312554,0.007567285832766
43.66561332950301,0.0073963454167091
43.694340706693474,0.0074816246604706
43.72306808388394,0.0077895545287526
43.7517954610744,0.0084087221353519
43.780522838264865,0.007802330671268
43.80925021545533,0.0079020413483194
43.837977592645785,0.010330443315927
43.86670496983625,0.0059463674491248
43.89543234702671,0.0071767753790274
43.924159724217176,0.0093821404797426
43.95288710140764,0.008385570382981
43.981614478598104,0.0074701949430086
44.01034185578856,0.0089382712197593
44.039069232979024,0.0084128712640679
44.06779661016949,0.0077650958433356
44.09652398735995,0.0092348420775136
44.125251364550415,0.008859587363147
44.15397874174088,0.0071473389483646
44.182706118931335,0.0086359417903252
44.2114334961218,0.0080156695291073
44.24016087331226,0.0074773898546876
44.26888825050273,0.0079266837238326
44.29761562769319,0.007994412223073
44.326343004883654,0.0079872202602329
44.35507038207411,0.0084537467600969
44.383797759264574,0.0082693485168011
44.41252513645504,0.0076848548831353
44.4412525136455,0.0077494873643831
44.469979890835965,0.0080966934572071
44.49870726802643,0.007823199036871
44.527434645216886,0.0077672370413716
44.55616202240735,0.0078688367180224
44.58488939959781,0.0076291157913267
44.61361677678828,0.0074970554093369
44.64234415397874,0.0077237742384641
44.6710715311692,0.0073551199723396
44.69979890835966,0.0073668651569046
44.72852628555013,0.0077332788787391
44.75725366274059,0.0077116626501719
44.78598103993105,0.0075312780006376
44.81470841712152,0.0079180614291403
44.84343579431198,0.0081977763439191
44.87216317150243,0.0080418170446875
44.9008905486929,0.007671467372508
44.92961792588336,0.0081058910471939
44.95834530307383,0.0077468824346098
44.98707268026429,0.0076921780044391
45.015800057454754,0.0078401113017365
45.04452743464521,0.0075739021430713
45.073254811835675,0.0073235357737722
45.10198218902614,0.0075079957617414
45.1307095662166,0.0072905495129938
45.159436943407066,0.0072815999783187
45.18816432059753,0.0072726038863233
45.216891697787986,0.0083937621182428
45.24561907497845,0.0079017131639918
45.27434645216891,0.0078874437006579
45.30307382935938,0.0082230822308105
45.33180120654984,0.0080693964876728
45.360528583740304,0.0078960935394154
45.38925596093076,0.0077321059740547
45.417983338121225,0.0072351117284615
45.44671071531169,0.0075769991096961
45.47543809250215,0.0075015010340738
45.504165469692616,0.0073609939395408
45.53289284688308,0.0073683413769421
45.561620224073536,0.0077429234145076
45.590347601264,0.0070953517591608
45.619074978454464,0.0072979685661367
45.64780235564493,0.0077575603155685
45.67652973283539,0.0074462928475034
45.705257110025855,0.0075382751057336
45.73398448721631,0.0097485110530685
45.762711864406775,0.0068523306996371
45.79143924159724,0.0072938462762819
45.8201666187877,0.0083410337670983
45.848893995978166,0.007946688204446
45.87762137316863,0.0078034864673899
45.906348750359086,0.0078242169962407
45.93507612754955,0.0075691154719279
45.963803504740014,0.0069540443664667
45.99253088193048,0.007491574302438
46.02125825912094,0.0077193339843835
46.049985636311405,0.0068126804022702
46.07871301350186,0.0069637847839917
46.107440390692325,0.009304683894374
46.13616776788279,0.0055747305811805
46.16489514507325,0.0064942449347447
46.19362252226371,0.0083760157233462
46.22234989945418,0.0069914416466224
46.25107727664464,0.0067299412089706
46.2798046538351,0.008820390924964
46.30853203102557,0.0075133992950873
46.33725940821603,0.0071861745017886
46.36598678540649,0.0074935354152799
46.394714162596955,0.007330700306842
46.42344153978741,0.0069354142555607
46.452168916977875,0.0072816196652789
46.48089629416834,0.0080037688698759
46.5096236713588,0.006772956779917
46.538351048549266,0.0068459101751444
46.56707842573973,0.0072515306480645
46.59580580293019,0.0074318839519873
46.62453318012065,0.0079097101184776
46.653260557311114,0.0085337037043725
46.68198793450158,0.0093208621852598
46.71071531169204,0.010052926844732
46.739442688882505,0.0106096533847546
46.76817006607296,0.0107108540386287
46.796897443263425,0.0103484300665937
46.82562482045389,0.0104784554365129
46.85435219764435,0.0094704634534266
46.88307957483482,0.0087750402699704
46.91180695202528,0.0086862367572566
46.94053432921574,0.0084497382025625
46.9692617064062,0.0079529239385314
46.997989083596664,0.007451705170024
47.02671646078713,0.0083640519841741
47.05544383797759,0.0079181005197929
47.08417121516805,0.0080659731355451
47.11289859235851,0.0079699088805402
47.141625969548976,0.0079349425593698
47.17035334673944,0.0076232937895589
47.1990807239299,0.0077400716384161
47.22780810112037,0.0078869256644902
47.25653547831082,0.007481447016113
47.28526285550129,0.0077146513560056
47.31399023269175,0.0077793242026888
47.342717609882214,0.0077328166461753
47.37144498707268,0.0078575890358619
47.40017236426314,0.0080973013237324
47.4288997414536,0.0079998727024121
47.45762711864406,0.0078795397589814
47.486354495834526,0.008352545669314
47.51508187302499,0.0085411305522869
47.54380925021545,0.0075468621773471
47.57253662740592,0.0079778237558584
47.60126400459637,0.0074353813024074
47.62999138178684,0.008249293977833
47.6587187589773,0.0086794061187634
47.687446136167765,0.0082796567662419
47.71617351335823,0.008104473246283
47.74490089054869,0.0083481753586418
47.77362826773915,0.0082710442830054
47.80235564492961,0.0081517864928283
47.83108302212008,0.0086793908920067
47.85981039931054,0.0084900585460017
47.888537776501,0.0079458765770677
47.91726515369147,0.0081473738052973
47.94599253088192,0.0078686488470429
47.97471990807239,0.0072699604911827
48.00344728526285,0.0078198855060227
48.032174662453315,0.0081245685670815
48.06090203964378,0.0075217615095723
48.08962941683424,0.0073572390428192
48.1183567940247,0.0076708402228479
48.14708417121516,0.0077948185932786
48.175811548405626,0.0077334152134105
48.20453892559609,0.0078974126370098
48.233266302786554,0.0076267263936753
48.26199367997702,0.0074603716715073
48.290721057167474,0.007593639482591
48.31944843435794,0.0079787814298649
48.3481758115484,0.0074882035922641
48.376903188738865,0.0078351589335203
48.40563056592933,0.0077532976432998
48.43435794311979,0.007647426839893
48.46308532031025,0.00840518909447
48.49181269750071,0.0081699575941789
48.520540074691176,0.0074140878013271
48.54926745188164,0.0078585614835666
48.577994829072104,0.007829495313527
48.60672220626257,0.0077710999277785
48.635449583453024,0.0077499550857996
48.66417696064349,0.0083911597005432
48.69290433783395,0.0076758872309688
48.721631715024415,0.007707917770133
48.75035909221488,0.0079744262100887
48.77908646940534,0.0079017925330887
48.8078138465958,0.0080186134534879
48.83654122378626,0.0080869931442787
48.86526860097673,0.0075379669381216
48.89399597816719,0.0074506379701069
48.922723355357654,0.0078451177484214
48.95145073254812,0.0085255959619356
48.980178109738574,0.0074532605539694
49.00890548692904,0.0074413412538766
49.0376328641195,0.0071087186349458
49.066360241309965,0.0072875201810912
49.09508761850043,0.0077333555286544
49.12381499569089,0.0076812982635144
49.15254237288135,0.0073448540583979
49.18126975007181,0.0071388435471613
49.20999712726228,0.0071371625233193
49.23872450445274,0.0068812718140641
49.2674518816432,0.0072069910579996
49.29617925883367,0.0074523499666458
49.32490663602413,0.0074645056734991
49.35363401321459,0.0075742465722382
49.38236139040505,0.007746830682012
49.411088767595515,0.0078940699928717
49.43981614478598,0.007997390261826
49.46854352197644,0.0082099615650803
49.4972708991669,0.0081124657092909
49.52599827635736,0.0078950511397682
49.55472565354783,0.0083188088621537
49.58345303073829,0.0084080833411321
49.612180407928754,0.008320117590769
49.64090778511922,0.0083295049199965
49.669635162309675,0.0084709584638732
49.69836253950014,0.0076585661774501
49.7270899166906,0.0078010702565423
49.755817293881066,0.0081286245469243
49.78454467107153,0.0076137049210843
49.81327204826199,0.007076334976217
49.84199942545245,0.0074295265934695
49.87072680264291,0.0071364615663343
49.89945417983338,0.0071095627901648
49.92818155702384,0.0074372562554598
49.956908934214304,0.0072440897279836
49.98563631140477,0.0067996127127164
50.014363688595225,0.0073288359390091
50.04309106578569,0.0076211267766615
50.07181844297615,0.0072470347949823
50.100545820166616,0.0078560683379457
50.12927319735708,0.0078828316131537
50.15800057454754,0.0068103513215164
50.186727951738,0.0073863894093887
50.21545532892846,0.0092427492994437
50.24418270611893,0.0064301177700454
50.27291008330939,0.0077113401228378
50.301637460499855,0.0085392461437549
50.33036483769032,0.0069160628835214
50.359092214880775,0.0074003477041501
50.38781959207124,0.007887446963912
50.4165469692617,0.0077810047053538
50.445274346452166,0.008500836810547
50.47400172364263,0.0100975878547513
50.50272910083309,0.012321997329495
50.53145647802355,0.0137237731390743
50.560183855214014,0.013799671188267
50.58891123240448,0.0138690420703599
50.61763860959494,0.0136868464050036
50.646365986785405,0.0137043617579868
50.67509336397587,0.013342186915528
50.703820741166325,0.0120786719852972
50.73254811835679,0.0104464612459833
50.76127549554725,0.0091161709873421
50.79000287273771,0.0081207414828008
50.81873024992818,0.0073328724045579
50.84745762711864,0.0084639319443888
50.8761850043091,0.0076525072439103
50.90491238149957,0.0081280916243983
50.93363975869003,0.008330908192349
50.96236713588049,0.0083971462485784
50.991094513070955,0.0072579939924564
51.01982189026142,0.0077793715560987
51.048549267451875,0.0076432109000414
51.07727664464234,0.0073083529053449
51.1060040218328,0.0072916168375532
51.134731399023266,0.0070802339766235
51.16345877621373,0.0067124768318445
51.192186153404194,0.006291806231735
51.22091353059465,0.009271996522092
51.249640907785114,0.0072849236558516
51.27836828497558,0.0061720537990941
51.30709566216604,0.0076493912026117
51.335823039356505,0.0076419989730805
51.36455041654697,0.0077348759382141
51.393277793737425,0.0080728835098114
51.42200517092789,0.0081285718355609
51.45073254811835,0.0066806297613002
51.47945992530882,0.007340922384228
51.50818730249928,0.0073696534626542
51.536914679689744,0.007263836901876
51.5656420568802,0.0074827026673012
51.594369434070664,0.0073208141157475
51.62309681126113,0.0072090233033138
51.65182418845159,0.0072434942786799
51.680551565642055,0.007103320360321
51.70927894283252,0.0069652934503021
51.738006320022976,0.0071842699277239
51.76673369721344,0.0071453450179415
51.7954610744039,0.0067002351405758
51.82418845159437,0.0067533316390408
51.85291582878483,0.0070453272247569
51.881643205975294,0.0070696437654506
51.91037058316575,0.006924579776058
51.939097960356214,0.0074194802544878
51.96782533754668,0.0069716463103043
51.99655271473714,0.0066311143058384
52.025280091927605,0.0065334155730471
52.05400746911807,0.0074066239519522
52.082734846308526,0.0072820603254017
52.11146222349899,0.0078346229603769
52.14018960068945,0.0076764213838957
52.16891697787992,0.0073300795945061
52.19764435507038,0.0072105071722754
52.22637173226085,0.0073185012711166
52.2550991094513,0.0072291937294228
52.283826486641765,0.0075010813530602
52.31255386383223,0.0067365683735222
52.34128124102269,0.0060629840105829
52.37000861821315,0.0069261929001783
52.39873599540362,0.0075499364198581
52.42746337259408,0.0073797453049616
52.45619074978454,0.0080013112436375
52.484918126975,0.0081062559092822
52.51364550416547,0.0072294306935902
52.54237288135593,0.0074712285753904
52.571100258546394,0.0077750215387636
52.59982763573685,0.0074957795704312
52.628555012927315,0.0073594575242581
52.65728239011778,0.0085224510528182
52.68600976730824,0.007820977326798
52.714737144498706,0.0076450144706619
52.74346452168917,0.0080873297065365
52.772191898879626,0.008229183239274
52.80091927607009,0.0073753532322676
52.82964665326055,0.0079280366824926
52.85837403045102,0.008345193905353
52.88710140764148,0.0070526734942054
52.915828784831945,0.0076707326682487
52.9445561620224,0.0076938971080088
52.973283539212865,0.0075523292638608
53.00201091640333,0.0078181486360843
53.03073829359379,0.0079024167909097
53.059465670784256,0.007749808709737
53.08819304797471,0.0076363305570271
53.116920425165176,0.0076709705705455
53.14564780235564,0.0072951450834875
53.174375179546104,0.0070586562875074
53.20310255673657,0.0086175482019591
53.23182993392703,0.0065487159394203
53.26055731111749,0.0070925865561027
53.28928468830795,0.0081110944163634
53.318012065498415,0.0078275799532211
53.34673944268888,0.0077814075984998
53.37546681987934,0.007890250926163
53.404194197069806,0.0075652786776928
53.43292157426026,0.0070804072544923
53.46164895145073,0.0086017036849337
53.49037632864119,0.007995493379588
53.519103705831654,0.0078042830622575
53.54783108302212,0.0084901514110511
53.57655846021258,0.0087131640921046
53.60528583740304,0.0076219629295465
53.6340132145935,0.008574549452357
53.662740591783965,0.0088095930380042
53.69146796897443,0.0076336745185547
53.72019534616489,0.0078493353648003
53.74892272335536,0.0084554324744019
53.77765010054581,0.0073902474213348
53.80637747773628,0.0077388251281195
53.83510485492674,0.008885365491013
53.8638322321172,0.0083154996673748
53.89255960930767,0.0080138410797786
53.92128698649813,0.008529206751427
53.95001436368859,0.0079589540591985
53.97874174087905,0.0075748069201503
54.007469118069515,0.0088051955475887
54.03619649525998,0.0079773804610989
54.06492387245044,0.0072663087937764
54.09365124964091,0.0077243136061281
54.12237862683136,0.0075539983756178
54.15110600402183,0.0073168079002726
54.17983338121229,0.0073239472410977
54.208560758402754,0.0074037330719791
54.23728813559322,0.0070324187874283
54.26601551278368,0.0069275870808513
54.29474288997414,0.0077290049298886
54.3234702671646,0.0069917044939387
54.352197644355066,0.0074373720533625
54.38092502154553,0.0076755472791981
54.40965239873599,0.0073540786046239
54.43837977592646,0.007186251267528
54.46710715311691,0.007568263346714
54.49583453030738,0.0071397022352062
54.52456190749784,0.0077794443042988
54.553289284688304,0.0081515633553258
54.58201666187877,0.0086195762142268
54.61074403906923,0.0108935531746573
54.63947141625969,0.0122770985542718
54.66819879345015,0.0125453814027713
54.696926170640616,0.0127947709866356
54.72565354783108,0.0132349790529661
54.75438092502154,0.0133710984552275
54.78310830221201,0.0132443042050476
54.81183567940246,0.012508665187457
54.84056305659293,0.0106445389882805
54.86929043378339,0.0087610605936331
54.898017810973855,0.0083435598123852
54.92674518816432,0.0082288598554628
54.95547256535478,0.0077136533463433
54.98419994254524,0.007916292988002
55.0129273197357,0.0080856145245518
55.041654696926166,0.0079056022252716
55.07038207411663,0.0079995941643688
55.09910945130709,0.0085023358114805
55.12783682849756,0.008541404920793
55.156564205688014,0.00861850622395
55.18529158287848,0.0090085496954574
55.21401896006894,0.0091261731777081
55.242746337259405,0.0089135692236045
55.27147371444987,0.0086283915584711
55.30020109164033,0.0084335964083744
55.32892846883079,0.0082682342150799
55.35765584602125,0.008748550529365
55.38638322321171,0.0086794825409976
55.41511060040218,0.0080313752934658
55.44383797759264,0.0080759828567235
55.47256535478311,0.0082111733272721
55.50129273197357,0.0077512609114781
55.53002010916403,0.0082330626657436
55.55874748635449,0.0086300784214749
55.587474863544955,0.008277101810501
55.61620224073542,0.0082428804350029
55.64492961792588,0.0082896364363709
55.67365699511634,0.008741118322998
55.7023843723068,0.0085254567560232
55.731111749497266,0.0092340901766611
55.75983912668773,0.0086270977338031
55.788566503878194,0.0081120361643408
55.81729388106866,0.0088514752400057
55.846021258259114,0.0086347432746459
55.87474863544958,0.009084926538717
55.90347601264004,0.0080542472369704
55.932203389830505,0.008019692509552
55.96093076702097,0.0077827837401507
55.98965814421143,0.0081238665506781
56.01838552140189,0.0094154303907414
56.04711289859235,0.0052640116460306
56.07584027578282,0.0078698398882581
56.10456765297328,0.007934332174578416
56.133295030163744,0.0080121496918118
56.16202240735421,0.0083358092017298
56.190749784544664,0.0087087522288988
56.21947716173513,0.0089094106621785
56.24820453892559,0.0087912080755159
56.276931916116055,0.0089969755123914
56.30565929330652,0.0085861490992385
56.33438667049698,0.0082736921937944
56.36311404768744,0.0088743902267832
56.3918414248779,0.0089742437088098
56.42056880206837,0.0074433755787743
56.44929617925883,0.007988077630713
56.478023556449294,0.0075009160879744
56.50675093363976,0.0075883998090401
56.535478310830214,0.0082572214095606
56.56420568802068,0.0082769185508656
56.59293306521114,0.0064800267583447
56.621660442401605,0.0087133773710994
56.65038781959207,0.0087206578232587
56.67911519678253,0.0078532782288024
56.70784257397299,0.0081314065085241
56.73656995116345,0.0084387971144601
56.76529732835392,0.0084672368764772
56.79402470554438,0.0081783380566138
56.82275208273485,0.0082304791820934
56.85147945992531,0.0078431318799015
56.880206837115765,0.0074419434095684
56.90893421430623,0.0081976255932238
56.93766159149669,0.0067430182308938
56.96638896868715,0.0066589519544435
56.99511634587762,0.0071289628259029
57.02384372306808,0.0069356072931618
57.05257110025854,0.0063819150514616
57.081298477449,0.0076233901458157
57.11002585463947,0.0072884238730323
57.13875323182993,0.0067290578115267
57.167480609020394,0.0067055460602057
57.19620798621086,0.006870676704615
57.224935363401315,0.0067838086188111
57.25366274059178,0.0068748802772897
57.28239011778224,0.0071318980489376
57.311117494972706,0.0071836605354539
57.33984487216317,0.0071271864065217
57.36857224935363,0.0076123968138256
57.39729962654409,0.0073953848798437
57.42602700373455,0.0071202255682239
57.45475438092502,0.0073343302831934
57.48348175811548,0.0071698931205157
57.512209135305945,0.0068527374061945
57.54093651249641,0.0077012698510017
57.569663889686865,0.0078891086532094
57.59839126687733,0.0075068854316452
57.62711864406779,0.0077321248735378
57.655846021258256,0.0079233585618726
57.68457339844872,0.0078493858836681
57.71330077563918,0.0078750343048199
57.74202815282964,0.0083134060238434
57.770755530020104,0.0080089573982284
57.79948290721057,0.0078505474883994
57.82821028440103,0.0081519433542739
57.856937661591495,0.0083284352125318
57.88566503878196,0.0078808716656808
57.914392415972415,0.0090646481021171
57.94311979316288,0.0084638181093274
57.97184717035334,0.0080173140550775
58.000574547543806,0.0081660133907717
58.02930192473427,0.0083385924863248
58.05802930192473,0.0076344037337624
58.08675667911519,0.007838965066874
58.115484056305654,0.0074905238060263
58.14421143349612,0.007077759134593
58.17293881068658,0.0073782815694114
58.201666187877045,0.0075795385014537
58.23039356506751,0.0073595612780946
58.259120942257965,0.007506756448104
58.28784831944843,0.0077987161885088
58.31657569663889,0.0076357257714371
58.34530307382936,0.0074760877167152
58.37403045101982,0.0077401168188149
58.40275782821029,0.0075513813849214
58.43148520540074,0.0075707291733779
58.4602125825912,0.0078555644260284
58.48893995978167,0.007786642283211
58.51766733697213,0.0085178667667791
58.546394714162595,0.0096345639231149
58.57512209135306,0.0084414917708094
58.603849468543515,0.0134890896264787
58.63257684573398,0.0132180868788227
58.66130422292444,0.0115081420292039
58.69003160011491,0.0116301563656573
58.71875897730537,0.0114121531957389
58.747486354495834,0.0104512028915874
58.77621373168629,0.0100002532468408
58.804941108876754,0.0095000803640871
58.83366848606722,0.0087916593359258
58.86239586325768,0.0086596507833049
58.891123240448145,0.0088705948546132
58.9198506176386,0.0089895629723059
58.948577994829066,0.0086913473524207
58.97730537201953,0.008075659741397
59.00603274920999,0.0078531229789145
59.03476012640046,0.0089797054055992
59.06348750359092,0.0080476670433834
59.09221488078138,0.0076408268412058
59.12094225797184,0.0083480424136434
59.149669635162304,0.0086298072078249
59.17839701235277,0.0084270376543739
59.20712438954323,0.0085605346071899
59.235851766733695,0.0085398885333892
59.26457914392415,0.0082855885200594
59.293306521114616,0.0089410157766153
59.32203389830508,0.0091746865357272
59.35076127549554,0.0086516028792276
59.37948865268601,0.0081109564151224
59.40821602987647,0.0093284324199657
59.43694340706693,0.0085113548875221
59.46567078425739,0.0088365211027121
59.494398161447855,0.009015434749649
59.52312553863832,0.0082970822271888
59.55185291582878,0.0078008522852672
59.580580293019246,0.0081782799028752
59.6093076702097,0.0077635781612519
59.638035047400166,0.0066678888385809
59.66676242459063,0.0076314615600861
59.69548980178109,0.0075968143749523
59.72421717897156,0.0071164016954753
59.75294455616202,0.007725304133288
59.78167193335248,0.0081956621316938
59.81039931054294,0.0073673995667729
59.839126687733405,0.0078103445158547
59.86785406492387,0.0090890536652439
59.89658144211433,0.0077517426869457
59.9253088193048,0.0077277804413826
59.95403619649525,0.0083132664914301
59.98276357368571,0.0071823845707952
60.01149095087618,0.0072911632233114
60.04021832806664,0.006932828940823734
60.06894570525711,0.007678304830593822
60.09767308244757,0.0069664496450925
60.12640045963803,0.0094168943652285
60.15512783682849,0.0082801082383116
60.183855214018955,0.0081998774348569
60.21258259120942,0.0083771003743131
60.24130996839988,0.0082530866994903
60.270037345590346,0.0074495632191813
60.2987647227808,0.0080973234766171
60.327492099971266,0.008869327464707
60.35621947716173,0.0057533719199245
60.384946854352194,0.0076604335335809
60.41367423154266,0.0086773975511506
60.44240160873312,0.0082018993790607
60.47112898592358,0.0084016652281051
60.49985636311404,0.0086121006282937
60.528583740304505,0.0083557796171415
60.55731111749497,0.0081319324039757
60.58603849468543,0.0084241914100647
60.614765871875896,0.0090281701538056
60.64349324906635,0.0082872210422616
60.672220626256816,0.0084752413990324
60.70094800344728,0.0082432324823955
60.729675380637744,0.0080231618983174
60.75840275782821,0.008496193347074
60.78713013501867,0.0085781274758902
60.81585751220913,0.0080081556120006
60.84458488939959,0.008197335600429
60.873312266590055,0.0084056527775893
60.90203964378052,0.0077893299731709
60.93076702097098,0.0080948748793722
60.959494398161446,0.0083469203740004
60.9882217753519,0.0073303088802281
61.01694915254237,0.0073921013196697
61.04567652973283,0.0080836253135088
61.074403906923294,0.0079498534356888
61.10313128411376,0.0076511751782027
61.13185866130422,0.0075454188646171
61.16058603849468,0.0079889964471885
61.18931341568514,0.0076384896697602
61.218040792875605,0.0080401829294074
61.24676817006607,0.0080242091983864
61.27549554725653,0.0073107530259856
61.304222924447,0.0081351935889944
61.33295030163745,0.0076983187007237
61.36167767882792,0.0073762054414554
61.39040505601838,0.0078930087404425
61.41913243320885,0.008164319740363
61.44785981039931,0.0075215928139854
61.47658718758977,0.0079197726575654
61.50531456478023,0.0081387649192152
61.53404194197069,0.0079830768822323
61.56276931916115,0.0077306125106258
61.59149669635162,0.0076335706547679
61.62022407354208,0.0080467870530233
61.64895145073255,0.0077473621769387
61.677678827923,0.0080711161160591
61.70640620511347,0.0083497871988094
61.73513358230393,0.0083217154872493
61.763860959494394,0.0079607657772908
61.79258833668486,0.0086066096467578
61.82131571387532,0.0074020532159971
61.85004309106578,0.008998944445498
61.87877046825624,0.0095829348328344
61.907497845446706,0.0081464761483082
61.93622522263717,0.0084070236661685
61.96495259982763,0.0089436778289982
61.9936799770181,0.008944374469157
62.02240735420855,0.0086512345367102
62.05113473139902,0.0095314637671151
62.07986210858948,0.0080814558588093
62.108589485779945,0.0076508772380215
62.13731686297041,0.0090720141706492
62.16604424016087,0.0085450995589549
62.19477161735133,0.008053713249598
62.22349899454179,0.0077911341567066
62.252226371732256,0.0080058918592341
62.28095374892272,0.0082208048975177
62.30968112611318,0.0080365302163438
62.33840850330365,0.0083937438949633
62.367135880494104,0.0081386876389538
62.39586325768457,0.0079065610648417
62.42459063487503,0.0085990576753711
62.453318012065495,0.0083511153697903
62.48204538925596,0.0080285441293547
62.51077276644642,0.0086629149388976
62.53950014363688,0.0084247607853427
62.56822752082734,0.0085788379607625
62.596954898017806,0.0110839254978683
62.62568227520827,0.010879807749555
62.65440965239873,0.0110921383481284
62.6831370295892,0.0108644157675948
62.711864406779654,0.0108748993328153
62.74059178397012,0.0102773558348357
62.76931916116058,0.0110612045162877
62.798046538351045,0.0104158564700127
62.82677391554151,0.0094007756598792
62.85550129273197,0.008393228494689
62.88422866992243,0.0084150329865592
62.91295604711289,0.0083988333610926
62.94168342430336,0.0080869619540692
62.97041080149382,0.0079623108392473
62.99913817868429,0.0087996030875767
63.02786555587475,0.0091438192793553
63.0565929330652,0.008813263131447884
63.08532031025567,0.008409124536290414
63.11404768744613,0.0079200046593802
63.142775064636595,0.007579873855221
63.17150244182706,0.0081981832047614
63.20022981901752,0.0082072907414903
63.22895719620798,0.0081819670477515
63.25768457339844,0.0084686299407799
63.28641195058891,0.0087639159307563
63.31513932777937,0.0057632579766636
63.343866704969834,0.0077453227456952
63.3725940821603,0.007782609367373566
63.401321459350754,0.0072961938140955
63.43004883654122,0.0084966919779553
63.45877621373168,0.0086302737590755
63.487503590922145,0.0082653853914114
63.51623096811261,0.0080125179744722
63.54495834530307,0.008377378567868
63.57368572249353,0.0083713081585708
63.60241309968399,0.00749284087883
63.63114047687446,0.0077613413004891
63.65986785406492,0.0085484202072705
63.688595231255384,0.0074182137890833
63.71732260844585,0.0075851415437798
63.746049985636304,0.0084302775997681
63.77477736282677,0.0077277838146275
63.80350474001723,0.0081238605309744
63.832232117207695,0.0084308827035805
63.86095949439816,0.008043197732778
63.88968687158862,0.0080903222786949
63.91841424877908,0.0083277166791221
63.94714162596954,0.0079317378011759
63.97586900316001,0.0082529259187358
64.00459638035046,0.0087862069547072
64.03332375754093,0.0083098606711756
64.06205113473139,0.0078354010131168
64.09077851192185,0.0079906149949693
64.11950588911232,0.0079173541266328
64.14823326630278,0.0075078566877139
64.17696064349325,0.0077469086728114
64.20568802068371,0.0086984677232406
64.23441539787417,0.0062583957594152
64.26314277506464,0.0061072095736212
64.2918701522551,0.0086655996996067
64.32059752944556,0.0068638159188867
64.34932490663601,0.006279715733822
64.37805228382648,0.0088980388539702
64.40677966101694,0.0078441727095936
64.4355070382074,0.0078766990630393
64.46423441539787,0.008310840670308
64.49296179258833,0.0082158494415587
64.5216891697788,0.007491214822488
64.55041654696926,0.0084851185401289
64.57914392415972,0.0082691812641464
64.60787130135019,0.0075957444366427
64.63659867854065,0.0078418281961523
64.66532605573111,0.0076743152322826
64.69405343292156,0.0073378869962809
64.72278081011203,0.0076324095695027
64.75150818730249,0.0078063335513623
64.78023556449295,0.007435985069972
64.80896294168342,0.0069889628181011
64.83769031887388,0.0072402928753098
64.86641769606435,0.0079814667543831
64.89514507325481,0.0069513070363276
64.92387245044527,0.0075446417333001
64.95259982763574,0.0078020703444117
64.9813272048262,0.0069766154429943
65.01005458201665,0.0078797788242681
65.03878195920711,0.0083807654147381
65.06750933639758,0.0063250361190615
65.09623671358804,0.00721014868225
65.1249640907785,0.0079526455145737
65.15369146796897,0.0081192421716975
65.18241884515943,0.0081790622355532
65.2111462223499,0.0080465548706424
65.23987359954036,0.0076462837285445
65.26860097673082,0.0070483818003667
65.29732835392129,0.0080447449729792
65.32605573111175,0.0076486778304801
65.3547831083022,0.0069016436272542
65.38351048549266,0.007389069169924
65.41223786268313,0.0073525103602196
65.44096523987359,0.0076163988895262
65.46969261706406,0.0083363757987683
65.49841999425452,0.0079653424094861
65.52714737144498,0.0076736991047928
65.55587474863545,0.0077560938666753
65.58460212582591,0.0079267734684594
65.61332950301637,0.0081367943973361
65.64205688020684,0.0083196099170386
65.6707842573973,0.0082024402259854
65.69951163458775,0.0080614607019182
65.72823901177821,0.0076238821329567
65.75696638896868,0.008039459744475
65.78569376615914,0.0079257363501917
65.8144211433496,0.0076225488262259
65.84314852054007,0.0078117227005491
65.87187589773053,0.0078469219449042
65.900603274921,0.0076756072233811
65.92933065211146,0.0073666585538369
65.95805802930192,0.0076433284075277
65.98678540649239,0.0072074041906114
66.01551278368285,0.0077480842478135
66.0442401608733,0.0079972024185078
66.07296753806376,0.0073698291932305
66.10169491525423,0.0074362735370711
66.13042229244469,0.0082203075926785
66.15914966963516,0.0078669637457427
66.18787704682562,0.008174818906455
66.21660442401608,0.0081754791971306
66.24533180120655,0.0083564619572318
66.27405917839701,0.0079773059645966
66.30278655558747,0.0078883177393024
66.33151393277794,0.0089431414090882
66.3602413099684,0.0087453641233915
66.38896868715885,0.0067864970171979
66.41769606434931,0.0078120749416495
66.44642344153978,0.0079155289163985
66.47515081873024,0.0075179301788361
66.5038781959207,0.007834301468759
66.53260557311117,0.0078948083062774
66.56133295030163,0.0072189414377996
66.5900603274921,0.0074634873832283
66.61878770468256,0.0077768715717038
66.64751508187302,0.0077394090855901
66.67624245906349,0.0088500146554708
66.70496983625395,0.0104763418093436
66.7336972134444,0.0115951985950071
66.76242459063486,0.0116108702540605
66.79115196782533,0.0122610025649021
66.81987934501579,0.0135707880666297
66.84860672220626,0.0082302326636911
66.87733409939672,0.0093089546265332
66.90606147658718,0.0069389113181077
66.93478885377765,0.008247448423733499
66.96351623096811,0.0094903857154991
66.99224360815857,0.0072164802873457
67.02097098534904,0.0082997259312242
67.0496983625395,0.0083539007188378
67.07842573972995,0.0080475975623848
67.10715311692041,0.0082066109569445
67.13588049411088,0.0083616378143459
67.16460787130134,0.0079670509910112
67.1933352484918,0.0074581312462315
67.22206262568227,0.0080180172697584
67.25079000287273,0.0084293754111838
67.2795173800632,0.0078041920336584
67.30824475725366,0.0074714842898172
67.33697213444412,0.0077893204023942
67.36569951163459,0.0070017260540746
67.39442688882505,0.0072193958706166
67.4231542660155,0.0076514273890378
67.45188164320597,0.00762466506311
67.48060902039643,0.0075017823351112
67.50933639758689,0.0078433491365389
67.53806377477736,0.0075741352687318
67.56679115196782,0.0071069762837081
67.59551852915828,0.0075124771173876
67.62424590634875,0.0074181625045922
67.65297328353921,0.0074061388815872
67.68170066072967,0.0068921197249764
67.71042803792014,0.0077481783565055
67.7391554151106,0.0077901276744248
67.76788279230105,0.0080616466459368
67.79661016949152,0.008309168459185
67.82533754668198,0.0084692029356121
67.85406492387244,0.0076020822942207
67.8827923010629,0.0079531618455717
67.91151967825337,0.0078632046683879
67.94024705544383,0.0077074388140203
67.9689744326343,0.0074725871208774
67.99770180982476,0.0079017342210929
68.02642918701522,0.0072727861613057
68.05515656420569,0.0073980843201319
68.08388394139615,0.0080734693881226
68.1126113185866,0.0080672463851416
68.14133869577707,0.0073182186887777
68.17006607296753,0.0088493558192717
68.19879345015799,0.0081795935464789
68.22752082734846,0.0073425655122178
68.25624820453892,0.0079520805666663
68.28497558172938,0.0080723694324835
68.31370295891985,0.0065200944584774
68.34243033611031,0.0074830625982715
68.37115771330078,0.0072020991104692
68.39988509049124,0.0069659419852021
68.4286124676817,0.00704277441073
68.45733984487215,0.0071070307991962
68.48606722206262,0.0071105186736288
68.51479459925308,0.0072646100373954
68.54352197644354,0.0078178543487402
68.572249353634,0.0076020000897875
68.60097673082447,0.0073953503450986
68.62970410801493,0.008297537102264
68.6584314852054,0.0079997058212207
68.68715886239586,0.0067824843510707
68.71588623958633,0.0081199557183819
68.74461361677679,0.0075073075550868
68.77334099396725,0.0070254191541738
68.8020683711577,0.0075265752750119
68.83079574834817,0.007731027435961
68.85952312553863,0.0069107352106857
68.8882505027291,0.0076893609192669
68.91697787991956,0.007773558580218
68.94570525711002,0.0076193418009249
68.97443263430048,0.008239855708499
69.00316001149095,0.0084206174971366
69.03188738868141,0.008003935997228
69.06061476587188,0.0079725996467359
69.08934214306234,0.0087238718203582
69.1180695202528,0.0077503415077922
69.14679689744325,0.007385088369681
69.17552427463372,0.0078307414939587
69.20425165182418,0.0079187597793927
69.23297902901464,0.0078537762579401
69.2617064062051,0.0081472820102008
69.29043378339557,0.0082814581173139
69.31916116058603,0.0076131568364827
69.3478885377765,0.0079463244196207
69.37661591496696,0.0082825672339073
69.40534329215743,0.0078802413688202
69.43407066934789,0.007589476463438
69.46279804653835,0.0085997634402497
69.4915254237288,0.0079304023038324
69.52025280091927,0.0076209510286919
69.54898017810973,0.0077347815653889
69.5777075553002,0.0075652113108518
69.60643493249066,0.0072282988088516
69.63516230968112,0.0072782847594032
69.66388968687158,0.0071758549464165
69.69261706406205,0.0066762490079822
69.72134444125251,0.0069367494193631
69.75007181844298,0.0073209449885762
69.77879919563344,0.0070236925925902
69.8075265728239,0.0071521901917086
69.83625395001435,0.0077262418039487
69.86498132720482,0.0075825237671255
69.89370870439528,0.0066194444130762
69.92243608158574,0.0086306362014635
69.95116345877621,0.0085844081025725
69.97989083596667,0.0074176336793533
70.00861821315713,0.0092133792725478
70.0373455903476,0.0083749093766801
70.06607296753806,0.0077261819185369
70.09480034472853,0.0085961145531226
70.12352772191899,0.0089194507207808
70.15225509910945,0.0073937511257025
70.1809824762999,0.0080867396939452
70.20970985349037,0.0087140600647557
70.23843723068083,0.0082591708229859
70.2671646078713,0.0081344583268982
70.29589198506176,0.0091855302507983
70.32461936225222,0.0080499586080601
70.35334673944269,0.0067983093545377
70.38207411663315,0.0081698162284614
70.41080149382361,0.0075853077877186
70.43952887101408,0.0071591052601251
70.46825624820454,0.0072686810103536
70.496983625395,0.0074767680718783
70.52571100258545,0.0073021532198577
70.55443837977592,0.0078114770570261
70.58316575696638,0.0084752435917595
70.61189313415684,0.0074378021643955
70.64062051134731,0.007550064391557
70.66934788853777,0.0072308484667405
70.69807526572824,0.0093635526773046
70.7268026429187,0.0106385700847356
70.75553002010916,0.0136086601552417
70.78425739729963,0.0136094493677506
70.81298477449009,0.0135858081152049
70.84171215168054,0.0134019095667687
70.870439528871,0.013421485788927
70.89916690606147,0.0153178911035667
70.92789428325193,0.0095820991188407
70.9566216604424,0.0104580466908601
70.98534903763286,0.0068631032228968
71.01407641482332,0.0083963264746194
71.04280379201379,0.0088306874074858
71.07153116920425,0.0079053699885181
71.10025854639471,0.0072220105727551
71.12898592358518,0.0086898950848575
71.15771330077564,0.0073327095822605
71.18644067796609,0.0053089963510612
71.21516805515655,0.0071868535522039674
71.24389543234702,0.0068358636820343
71.27262280953748,0.0072976581338105
71.30135018672794,0.0076559984791998
71.33007756391841,0.0075093322124894
71.35880494110887,0.0076635461314672
71.38753231829934,0.007788637445831
71.4162596954898,0.0073978036315808
71.44498707268026,0.0072378796627005
71.47371444987073,0.0075772320351854
71.50244182706119,0.0076997621913774
71.53116920425164,0.0074195521644612
71.5598965814421,0.0075970908784943
71.58862395863257,0.0079345346705765
71.61735133582303,0.0078619417692422
71.6460787130135,0.0076541604220691
71.67480609020396,0.0082825195718094
71.70353346739442,0.0082386209701046
71.73226084458489,0.0081485578610771
71.76098822177535,0.008389723708184
71.78971559896581,0.0083827401832751
71.81844297615628,0.0081815788436679
71.84717035334674,0.0081459931429769
71.87589773053719,0.0081879620350122
71.90462510772765,0.0068813543791752
71.93335248491812,0.006822609518199
71.96207986210858,0.007412982354236
71.99080723929904,0.0068889707281449
72.01953461648951,0.0075063704970135
72.04826199367997,0.0076588478543483
72.07698937087044,0.0071945339515223
72.1057167480609,0.0075926141744943
72.13444412525136,0.0077368377334061
72.16317150244183,0.0071192218095091
72.19189887963229,0.0077291097402327
72.22062625682274,0.0079591376484739
72.2493536340132,0.0076826968331127
72.27808101120367,0.007571525150473
72.30680838839413,0.0080416767821077
72.3355357655846,0.0075909994057844
72.36426314277506,0.0075201187183876
72.39299051996552,0.0073360322493852
72.42171789715599,0.0080156339978118
72.45044527434645,0.007306735112545
72.47917265153691,0.0080786188119901
72.50790002872738,0.0076731487276362
72.53662740591784,0.0068903302149149
72.56535478310829,0.0074362112732965
72.59408216029875,0.0079925677617833
72.62280953748922,0.0076074668855634
72.65153691467968,0.0078041780124681
72.68026429187015,0.0076548845515421
72.70899166906061,0.007497777470887
72.73771904625107,0.0077630738013341
72.76644642344154,0.0077794603669589
72.795173800632,0.0076541020281866
72.82390117782246,0.0076744187888668
72.85262855501293,0.0072898787322311
72.88135593220339,0.0072796402439908
72.91008330939384,0.0072308649079371
72.9388106865843,0.0073951796910843
72.96753806377477,0.0075936229346906
72.99626544096523,0.0065200587449198
73.0249928181557,0.0068377864562528
73.05372019534616,0.0071161127067459
73.08244757253662,0.0066741954316761
73.11117494972709,0.0069694925451805
73.13990232691755,0.0070726426768687
73.16862970410801,0.0068393576501013
73.19735708129848,0.0069118227998146
73.22608445848894,0.0073906755368124
73.25481183567939,0.0075199040345896
73.28353921286985,0.007265134123014
73.31226659006032,0.0073968215833576
73.34099396725078,0.0074903595618487
73.36972134444125,0.0071465305563432
73.39844872163171,0.0075634585556566
73.42717609882217,0.0080107755136421
73.45590347601264,0.0068773366398247
73.4846308532031,0.0073726065607252
73.51335823039356,0.0089856279028247
73.54208560758403,0.0074462162616164
73.57081298477449,0.0072643700612473
73.59954036196494,0.0082728744106594
73.6282677391554,0.0075653481651734
73.65699511634587,0.0074256270107374
73.68572249353633,0.0075662136729519
73.7144498707268,0.0075535748063171
73.74317724791726,0.0071970889743371
73.77190462510772,0.0078691018471664
73.80063200229819,0.0074349710048954
73.82935937948865,0.0070331488194148
73.85808675667911,0.0071939707520535
73.88681413386958,0.0073886368337729
73.91554151106004,0.0065687374698958
73.94426888825049,0.0075621947237254
73.97299626544095,0.0082890044446636
74.00172364263142,0.006728507070534
74.03045101982188,0.0069449176546005
74.05917839701235,0.0079641249035366
74.08790577420281,0.0076999535194028
74.11663315139327,0.0078804586189896
74.14536052858374,0.0073985534295263
74.1740879057742,0.0078021998812254
74.20281528296466,0.0082984346911711
74.23154266015513,0.00833479397414
74.26027003734559,0.0078863613200196
74.28899741453604,0.0076452475680566
74.3177247917265,0.007849753512802
74.34645216891697,0.0075991665511759
74.37517954610743,0.0075488844020969
74.4039069232979,0.007654150108591
74.43263430048836,0.0073949571814051
74.46136167767882,0.0072492710921409
74.49008905486929,0.0074335365252912
74.51881643205975,0.0072940245593643
74.54754380925021,0.0070879511814834
74.57627118644068,0.0068821143954392
74.60499856363114,0.0072662882518669
74.63372594082159,0.00759159312692
74.66245331801206,0.007501949217739
74.69118069520252,0.0081775605976903
74.71990807239298,0.0094281675417505
74.74863544958345,0.0096507103246215
74.77736282677391,0.0096583490085449
74.80609020396437,0.0101784430457766
74.83481758115484,0.0101800794394697
74.8635449583453,0.0102920534342148
74.89227233553576,0.0099890603051521
74.92099971272623,0.0095337988431509
74.94972708991669,0.0086294642098538
74.97845446710714,0.007738244674584
75.0071818442976,0.0074659499957205
75.03590922148807,0.0075917040582422
75.06463659867853,0.0076331115641728
75.093363975869,0.0073177941384806
75.12209135305946,0.0074555304331004
75.15081873024992,0.0077185414838029
75.17954610744039,0.0073436095757738
75.20827348463085,0.0075515646544175
75.23700086182131,0.0075597853201909
75.26572823901178,0.0077135541500541
75.29445561620224,0.0075628583176037
75.32318299339269,0.0075117776572231
75.35191037058316,0.0075241933198148
75.38063774777362,0.0074734153157349
75.40936512496408,0.0076317247933439
75.43809250215455,0.0079039542170916
75.46681987934501,0.007584243345903
75.49554725653547,0.0073950909434221
75.52427463372594,0.0080020945943958
75.5530020109164,0.0082496116426997
75.58172938810687,0.0065276422399891
75.61045676529733,0.0080522189062477
75.63918414248779,0.0079909853245286
75.66791151967824,0.0077678807264716
75.6966388968687,0.0078900461506625
75.72536627405917,0.0082245995686023
75.75409365124963,0.0074934969413656
75.7828210284401,0.0080750347723472
75.81154840563056,0.0078316069307313
75.84027578282102,0.0073001415538616
75.86900316001149,0.0074648994777037
75.89773053720195,0.0080311115315662
75.92645791439242,0.007425182905852
75.95518529158288,0.0067639311670517
75.98391266877334,0.007142320700475
76.01264004596379,0.0068587585351438
76.04136742315426,0.0071243473422174
76.07009480034472,0.007166593480926
76.09882217753518,0.0070783316689786
76.12754955472565,0.0075442904309648
76.15627693191611,0.0070646551453662
76.18500430910657,0.0067401577051172
76.21373168629704,0.00737881895162
76.2424590634875,0.0074588481736735
76.27118644067797,0.007380415641615
76.29991381786843,0.0071384509593807
76.32864119505889,0.0074483733862355
76.35736857224934,0.0073920534196142
76.3860959494398,0.0076941334116406
76.41482332663027,0.0077840752130512
76.44355070382073,0.0071314024083899
76.4722780810112,0.0073352665356294
76.50100545820166,0.0073444806387398
76.52973283539212,0.0072496650536664
76.55846021258259,0.0071389161939387
76.58718758977305,0.0070147342848043
76.61591496696352,0.0068291501893673
76.64464234415398,0.0067568944393331
76.67336972134443,0.0069652715495773
76.70209709853489,0.0065483384056211
76.73082447572536,0.0064688927330546
76.75955185291582,0.0066751854461795
76.78827923010628,0.0068267762904426
76.81700660729675,0.006726258359438
76.84573398448721,0.006282107998766
76.87446136167767,0.0067716606408193
76.90318873886814,0.0077438601107579
76.9319161160586,0.0070050045008929
76.96064349324907,0.006968462569886
76.98937087043953,0.0077538049647105
77.01809824762998,0.0071958060109689
77.04682562482044,0.0071590183343537
77.0755530020109,0.0076144117601299
77.10428037920137,0.0075450260344876
77.13300775639183,0.0075600681299537
77.1617351335823,0.0078019075680071
77.19046251077276,0.0079438884425446
77.21918988796322,0.0073106948450739
77.24791726515369,0.007605141036958
77.27664464234415,0.0071253666436027
77.30537201953462,0.0068117703538506
77.33409939672508,0.0072571810688866
77.36282677391553,0.0071866698134179
77.39155415110599,0.0069406680796167
77.42028152829646,0.0069442640236495
77.44900890548692,0.007493553078023
77.47773628267738,0.0077740671299119
77.50646365986785,0.0067226095997014
77.53519103705831,0.0075734001031456
77.56391841424877,0.0069938721547714
77.59264579143924,0.0072794322813655
77.6213731686297,0.0076384930967663
77.65010054582017,0.0075901616153167
77.67882792301063,0.0074796652720084
77.70755530020108,0.0076237368426194
77.73628267739154,0.0074054216403591
77.765010054582,0.0071954098315775
77.79373743177247,0.0075937749682199
77.82246480896293,0.0075940336565368
77.8511921861534,0.0075914591062154
77.87991956334386,0.0083570956661726
77.90864694053433,0.0081681399586414
77.93737431772479,0.007858595284301
77.96610169491525,0.0083826363325074
77.99482907210572,0.0077793521398141
78.02355644929618,0.0074284460573161
78.05228382648663,0.0078952209566659
78.0810112036771,0.0077136771407227
78.10973858086756,0.0071489872182379
78.13846595805802,0.0067640595424995
78.16719333524848,0.0068549716554467
78.19592071243895,0.0068185345734419
78.22464808962941,0.0068493810661236
78.25337546681988,0.0074296472774515
78.28210284401034,0.0074298740093921
78.3108302212008,0.0072728181398425
78.33955759839127,0.0077081825442453
78.36828497558173,0.0078371108371364
78.39701235277218,0.0070908370327376
78.42573972996264,0.0072572398992607
78.4544671071531,0.0076951010120373
78.48319448434357,0.0071128315384841
78.51192186153403,0.006887426983235
78.5406492387245,0.0069185814299383
78.56937661591496,0.0067914011772157
78.59810399310543,0.0068271125653912
78.62683137029589,0.0079205252831951
78.65555874748635,0.0087815009634266
78.68428612467682,0.0094422100358368
78.71301350186728,0.0114388703299414
78.74174087905773,0.012990562020949
78.7704682562482,0.0139559963676017
78.79919563343866,0.0139581024479698
78.82792301062912,0.014603336558611
78.85665038781958,0.0142322976254442
78.88537776501005,0.0130281365603056
78.91410514220051,0.011931322090152
78.94283251939098,0.0129703138029048
78.97155989658144,0.0086765385006491
79.0002872737719,0.008705648713643
79.02901465096237,0.0090911692372334
79.05774202815283,0.0081798613977719
79.08646940534328,0.0083756094622249
79.11519678253374,0.0081552802299603
79.14392415972421,0.0084211709621913
79.17265153691467,0.0092333428739494
79.20137891410513,0.0076121958242931
79.2301062912956,0.0080033782380978
79.25883366848606,0.0083648557428877
79.28756104567653,0.0086166309637536
79.31628842286699,0.0081329681751076
79.34501580005745,0.0086090143732426
79.37374317724792,0.0065558232165967
79.40247055443838,0.0070542324364833
79.43119793162883,0.0074893625583723
79.4599253088193,0.0078122972617809
79.48865268600976,0.0073373903261375
79.51738006320022,0.0070652675977717
79.54610744039068,0.0071366772775751
79.57483481758115,0.007029605825278
79.60356219477161,0.0071460513042939
79.63228957196208,0.0075109889836988
79.66101694915254,0.0075765686173804
79.689744326343,0.0073358829390089
79.71847170353347,0.0073109990643872
79.74719908072393,0.0075598578428337
79.77592645791438,0.0074059158456505
79.80465383510484,0.0072876244368463
79.83338121229531,0.0075796310089357
79.86210858948577,0.0073427488198173
79.89083596667624,0.0071999139898969
79.9195633438667,0.007296437232045
79.94829072105716,0.0076089388859813
79.97701809824763,0.0075577018034306
80.00574547543809,0.0073795456740296
80.03447285262855,0.007180834240075
80.06320022981902,0.007133835403788
80.09192760700948,0.0073486641472209
80.12065498419993,0.0072793527824102
80.1493823613904,0.0072664012954282
80.17810973858086,0.0069783255909984
80.20683711577132,0.0067026935431388
80.23556449296179,0.0075646661738223
80.26429187015225,0.0067591843528322
80.29301924734271,0.0069087765959263
80.32174662453318,0.0068720741701377
80.35047400172364,0.0066491923321869
80.3792013789141,0.0070657920655658
80.40792875610457,0.0073274450237436
80.43665613329503,0.0071654257143646
80.46538351048548,0.0072445047818573
80.49411088767594,0.0072537448774314
80.52283826486641,0.0048074859920517
80.55156564205687,0.0106813300643136
80.58029301924734,0.0085361082332214
80.6090203964378,0.0068081256275771
80.63774777362826,0.0072953857922338
80.66647515081873,0.0072330259980907
80.69520252800919,0.0074786095441219
80.72392990519965,0.0073972846303329
80.75265728239012,0.0072603767136405
80.78138465958058,0.0078696151141063
80.81011203677103,0.0069121417066178
80.8388394139615,0.0061812976218187
80.86756679115196,0.0070764423365298
80.89629416834242,0.0068639913286193
80.92502154553289,0.0070618558810103
80.95374892272335,0.0073270372399169
80.98247629991381,0.0072118952289421
81.01120367710428,0.0071631295426185
81.03993105429474,0.0075003546475237
81.0686584314852,0.0074272730273859
81.09738580867567,0.0072062332398226
81.12611318586613,0.0075272380742019
81.15484056305658,0.0070558864079005
81.18356794024704,0.0073396173265802
81.21229531743751,0.0078116403554131
81.24102269462797,0.0077744187147846
81.26975007181844,0.0073828481251162
81.2984774490089,0.0078618106979014
81.32720482619936,0.007615604312585
81.35593220338983,0.0073537340837819
81.38465958058029,0.0077452632470591
81.41338695777075,0.006780607100046
81.44211433496122,0.0073432077875865
81.47084171215168,0.0076562214037044
81.49956908934213,0.007660932049246
81.5282964665326,0.0075166507575017
81.55702384372306,0.0073279210950238
81.58575122091352,0.0078640843831589
81.61447859810399,0.0074616934299747
81.64320597529445,0.0074332998392448
81.67193335248491,0.0077643162310308
81.70066072967538,0.0075995994375433
81.72938810686584,0.0075117580933163
81.7581154840563,0.0077544821118045
81.78684286124677,0.0078139157616113
81.81557023843723,0.0070714378828546
81.84429761562768,0.007233335107552
81.87302499281815,0.0070833242670359
81.90175237000861,0.0070674327346012
81.93047974719907,0.0072771919496683
81.95920712438954,0.0072584357260846
81.98793450158,0.0069165286157753
82.01666187877046,0.0067889526896926
82.04538925596093,0.0071320387876156
82.07411663315139,0.0071918118398673
82.10284401034185,0.00642937063181
82.13157138753232,0.0071870849542507
82.16029876472278,0.007179970366212
82.18902614191323,0.0063145009959581
82.2177535191037,0.0071305215113328
82.24648089629416,0.007304645165921
82.27520827348462,0.007040799441236
82.30393565067509,0.0072771818174496
82.33266302786555,0.0073221451609115
82.36139040505601,0.0072917440260283
82.39011778224648,0.0075293898872117
82.41884515943694,0.0077987486771221
82.4475725366274,0.0075311611037538
82.47629991381787,0.0072357468794396
82.50502729100832,0.0075787641015928
82.53375466819878,0.0070433160848787
82.56248204538925,0.0069533406600751
82.59120942257971,0.0073842360885793
82.61993679977017,0.0070527590216412
82.64866417696064,0.0072741143156967
82.6773915541511,0.0077580307869269
82.70611893134156,0.0076930642483432
82.73484630853203,0.0083581632576592
82.76357368572249,0.0089883555515319
82.79230106291295,0.011203060158439868
82.82102844010342,0.013236866605704
82.84975581729387,0.0113975029061769
82.87848319448433,0.017544408381224
82.9072105716748,0.0150097999694584
82.93593794886526,0.0152313420165717
82.96466532605572,0.0149348815721493
82.99339270324619,0.0146390651927525
83.02212008043665,0.0137298119240663
83.05084745762711,0.0130198678173979
83.07957483481758,0.0131371222121708
83.10830221200804,0.008391840692182
83.1370295891985,0.0082817670267448
83.16575696638897,0.0079336906343597
83.19448434357942,0.0074240548423574
83.22321172076988,0.0077174398455167
83.25193909796035,0.0078007667082398
83.28066647515081,0.0076928189598666
83.30939385234127,0.0079611582259897
83.33812122953174,0.0079562155711094
83.3668486067222,0.0077984724691245
83.39557598391266,0.0078092507656031
83.42430336110313,0.0078983774748928
83.45303073829359,0.0078143836765288
83.48175811548406,0.0076310258770358
83.51048549267452,0.0077404047940278
83.53921286986497,0.0071043095374919
83.56794024705543,0.0066289488095114
83.5966676242459,0.0070806509189644
83.62539500143636,0.0075955127286601
83.65412237862682,0.0064201634342123
83.68284975581729,0.0070952901995776
83.71157713300775,0.007247426963324
83.74030451019821,0.0072888783228947
83.76903188738868,0.0074328218557488
83.79775926457914,0.0078256178162628
83.8264866417696,0.0077897827134834
83.85521401896007,0.0076853885905181
83.88394139615052,0.0080347501835923
83.91266877334098,0.0082576780246587
83.94139615053145,0.007373765912335
83.97012352772191,0.0078844795176177
83.99885090491237,0.0079123529271508
84.02757828210284,0.0075090847798924
84.0563056592933,0.0076105506118187
84.08503303648376,0.0067107151341903
84.11376041367423,0.0071190046375779
84.14248779086469,0.0071114838913382
84.17121516805516,0.0068879751106033
84.19994254524562,0.0069552370950746
84.22866992243607,0.0071961936423275
84.25739729962653,0.0071418877365909
84.286124676817,0.0072478709761504
84.31485205400746,0.0072799676480183
84.34357943119792,0.0069442997699403
84.37230680838839,0.0064352878909126
84.40103418557885,0.0077555938960134
84.42976156276931,0.0079876626802236
84.45848893995978,0.0065865665370918
84.48721631715024,0.0070405196323392
84.5159436943407,0.0076465653345666
84.54467107153117,0.00667392620265
84.57339844872162,0.0062053131224184
84.60212582591208,0.0074784032079629
84.63085320310255,0.006602391973224
84.65958058029301,0.0065909222896629
84.68830795748347,0.0069441637286162
84.71703533467394,0.0072107338923256
84.7457627118644,0.0074212803064868
84.77449008905486,0.0074159526116464
84.80321746624533,0.0073403701243031
84.83194484343579,0.0074178097683529
84.86067222062626,0.0074860946306102
84.88939959781672,0.0073795296175248
84.91812697500717,0.0070961288130813
84.94685435219763,0.0070322009443469
84.9755817293881,0.0071034334694289
85.00430910657856,0.0070342047503549
85.03303648376902,0.0068609825757036
85.06176386095949,0.0078793987636149
85.09049123814995,0.0075154860640216
85.11921861534042,0.0076760456998603
85.14794599253088,0.0078281276490417
85.17667336972134,0.0076786915278194
85.2054007469118,0.0076610699834218
85.23412812410227,0.0079246227820235
85.26285550129272,0.0077025100479709
85.29158287848318,0.0075175343954615
85.32031025567365,0.0074992157834176
85.34903763286411,0.0072798944332542
85.37776501005457,0.0072079053333708
85.40649238724504,0.0075550546403859
85.4352197644355,0.0085619906566302
85.46394714162597,0.006587276315869
85.49267451881643,0.0064599222104531
85.52140189600689,0.0072358615531719
85.55012927319736,0.0067070239571543
85.57885665038782,0.0066020424843987
85.60758402757827,0.007700084567609
85.63631140476873,0.007182056920821
85.6650387819592,0.0061994609901871
85.69376615914966,0.0073276446541501
85.72249353634012,0.0072993546775946
85.75122091353059,0.0072336026079894
85.77994829072105,0.0076003880914842
85.80867566791152,0.0075959566951348
85.83740304510198,0.0070339384958577
85.86613042229244,0.0070444711912436
85.8948577994829,0.0070892586371074
85.92358517667337,0.007118131487087
85.95231255386382,0.0072985166024947
85.98103993105428,0.0072184105459956
86.00976730824475,0.0068322594257205
86.03849468543521,0.0072129954475853
86.06722206262567,0.0072088974172287
86.09594943981614,0.0069473444180056
86.1246768170066,0.0069700525939919
86.15340419419707,0.0071544516436212
86.18213157138753,0.0069775506824716
86.210858948578,0.0070499135254336
86.23958632576846,0.0072245310571336
86.26831370295892,0.0064332349628325
86.29704108014937,0.0065946801693887
86.32576845733983,0.0066947879432026
86.3544958345303,0.0063241771197212
86.38322321172076,0.0061391830981628
86.41195058891122,0.0069974267096334
86.44067796610169,0.0069550920153392
86.46940534329215,0.0071300006792295
86.49813272048262,0.007097598832282
86.52686009767308,0.0071243525853029
86.55558747486354,0.0075541396113955
86.584314852054,0.0076211895269778
86.61304222924447,0.0078153660669907
86.64176960643492,0.007423466006386
86.67049698362538,0.007522536372333
86.69922436081585,0.0077190145752642
86.72795173800631,0.0076266355842686
86.75667911519677,0.0072375853950842
86.78540649238724,0.0079574312930528
86.8141338695777,0.0080580066237876
86.84286124676817,0.0079732988233456
86.87158862395863,0.0083611873894391
86.9003160011491,0.0094417925435444
86.92904337833956,0.0109560356673855
86.95777075553002,0.0119685778399086
86.98649813272047,0.0126472061399782
87.01522550991093,0.0120979513795159
87.0439528871014,0.0120383062013505
87.07268026429186,0.0139014416304826
87.10140764148233,0.0115012620141767
87.13013501867279,0.0104700234063579
87.15886239586325,0.0082027768348211
87.18758977305372,0.0080679766082552
87.21631715024418,0.0085683016744102
87.24504452743464,0.0082230345483571
87.27377190462511,0.0078383018631717
87.30249928181557,0.0085556341338218
87.33122665900602,0.0084223629294586
87.35995403619648,0.0080595044101168
87.38868141338695,0.0077786070607801
87.41740879057741,0.0076682593479639
87.44613616776788,0.0076936198321937
87.47486354495834,0.0077585521321097
87.5035909221488,0.0076994791387277
87.53231829933927,0.0073792799273333
87.56104567652973,0.0069963360579626
87.5897730537202,0.0069965673033816
87.61850043091066,0.0078131665451323
87.64722780810112,0.0079378165566131
87.67595518529157,0.0074704834016608
87.70468256248203,0.007863681307865
87.7334099396725,0.0075827774019714
87.76213731686296,0.0079270359283369
87.79086469405343,0.0082520217212856
87.81959207124389,0.0074986261215408
87.84831944843435,0.0076276583611347
87.87704682562482,0.0078383405738769
87.90577420281528,0.0081195594746806
87.93450158000574,0.0078959251117506
87.96322895719621,0.0075376809373997
87.99195633438667,0.0078985754523726
88.02068371157712,0.0076050367030995
88.04941108876758,0.0072458133767501
88.07813846595805,0.0075449979893717
88.10686584314851,0.0068225696380625
88.13559322033898,0.0072431206186723
88.16432059752944,0.0075340313104904
88.1930479747199,0.0069375628116393
88.22177535191037,0.0067008033329812
88.25050272910083,0.0072298531913436
88.2792301062913,0.0071176570840991
88.30795748348176,0.0072293900587833
88.33668486067221,0.0074347922144081
88.36541223786267,0.0074580909922224
88.39413961505313,0.0074453870297961
88.4228669922436,0.0076276041360799
88.45159436943406,0.0072622023275731
88.48032174662453,0.0074387267268049
88.50904912381499,0.0076211318016021
88.53777650100545,0.0074020521044829
88.56650387819592,0.0073834528013361
88.59523125538638,0.0075842102075966
88.62395863257684,0.0080359121011207
88.65268600976731,0.007915325645984
88.68141338695776,0.0079938536913967
88.71014076414822,0.0079928623388833
88.73886814133868,0.0072637061611991
88.76759551852915,0.0080703776571066
88.79632289571961,0.008529701336611
88.82505027291008,0.0059911713027009
88.85377765010054,0.007526228182833
88.882505027291,0.0079684281094493
88.91123240448147,0.0070587478959079
88.93995978167193,0.0071704958967406
88.9686871588624,0.0074404126060965
88.99741453605286,0.0072088181372717
89.02614191324331,0.006901528245358
89.05486929043377,0.0076903812724963
89.08359666762424,0.0073497623342929
89.1123240448147,0.0065977840773097
89.14105142200516,0.0068515569643644
89.16977879919563,0.0079676688918409
89.19850617638609,0.0067814237606698
89.22723355357655,0.0060646698217007
89.25596093076702,0.0070813599708039
89.28468830795748,0.006591263110773
89.31341568514794,0.0064778687332085
89.34214306233841,0.0078209915738581
89.37087043952886,0.0067956122794023
89.39959781671932,0.007153412205475901
89.42832519390979,0.0070389782951801
89.45705257110025,0.0070829952166812
89.48577994829071,0.0077040271345252
89.51450732548118,0.008113285103567
89.54323470267164,0.0085058454373509
89.5719620798621,0.0064492878321329
89.60068945705257,0.0083788231782342
89.62941683424303,0.0096302324494324
89.6581442114335,0.0075929481473336
89.68687158862396,0.0078676648368357
89.71559896581441,0.0077668775781744
89.74432634300487,0.0072943435409749
89.77305372019534,0.007530993154386
89.8017810973858,0.0076193289087664
89.83050847457626,0.0074106441654919
89.85923585176673,0.0074027266038083
89.88796322895719,0.0075393691686968
89.91669060614765,0.0075060960573691
89.94541798333812,0.0073699113742641
89.97414536052858,0.0072949243968083
90.00287273771904,0.0069234071426809
90.03160011490951,0.0069670046389541
90.06032749209996,0.0073538114181919
90.08905486929042,0.0071235771588473
90.11778224648089,0.0068093187853397
90.14650962367136,0.0069189883182563
90.1752370008618,0.0068800061028613
90.20396437805228,0.0067233247500549
90.23269175524274,0.0069017260738901
90.2614191324332,0.0069537401825492
90.29014650962368,0.0067393617008841
90.31887388681412,0.0068753294797851
90.3476012640046,0.0070497983964357
90.37632864119506,0.007240891291843
90.40505601838552,0.0074114405269854
90.43378339557596,0.007368431268138
90.46251077276644,0.0068080842048376
90.4912381499569,0.0072510211532484
90.51996552714736,0.0077283487561888
90.54869290433784,0.0073093954479043
90.57742028152828,0.0072048550693542
90.60614765871875,0.00792934025174
90.63487503590922,0.0063908252137299
90.66360241309968,0.006479917805187
90.69232979029016,0.0071026164173855
90.7210571674806,0.0069505703334578
90.74978454467106,0.0065668736071358
90.77851192186152,0.0073722084325878
90.807239299052,0.0072322875512866
90.83596667624244,0.0070056917199092
90.86469405343291,0.0075866802147806
90.89342143062338,0.0078487350556939
90.92214880781384,0.0074673440104659
90.9508761850043,0.0077966003799039
90.97960356219475,0.0079390310898661
91.00833093938525,0.0080339608491081
91.0370583165757,0.0088275430937732
91.06578569376616,0.0094989116446327
91.0945130709566,0.0098366331381238
91.12324044814709,0.01015056199447
91.15196782533754,0.0103751142540052
91.180695202528,0.0102935123796161
91.20942257971846,0.0099452328806721
91.23814995690891,0.0099659907277748
91.2668773340994,0.009762560368487
91.29560471128984,0.0089411535111317
91.32433208848032,0.0087307069317389
91.35305946567078,0.0081280684965401
91.38178684286125,0.0073665474643451
91.41051422005172,0.0076193297972068
91.43924159724216,0.0076105927240805
91.46796897443262,0.0072640955872804
91.49669635162309,0.0075030965754164
91.52542372881356,0.0077492812000578
91.554151106004,0.0073740959649214
91.58287848319448,0.0068298929524881
91.61160586038494,0.0069810020956516
91.6403332375754,0.0076041815962715
91.66906061476588,0.00733852358273
91.69778799195632,0.0076579852876414
91.7265153691468,0.0078053110449463
91.75524274633726,0.007665233264252
91.78397012352772,0.0080604775603347
91.81269750071816,0.0080777983697735
91.84142487790864,0.0079426966377064
91.8701522550991,0.0080985763580317
91.89887963228956,0.0080692561464782
91.92760700948004,0.0068889722068785
91.95633438667048,0.0073326877090779
91.98506176386095,0.0077230546909163
92.01378914105142,0.0073328806238102
92.04251651824188,0.007128809891303
92.07124389543236,0.0074803131982059
92.0999712726228,0.0070900668251716
92.12869864981326,0.0067897421892294
92.15742602700372,0.0086341801630181
92.1861534041942,0.0077342489346179
92.21488078138464,0.0075494359651886
92.24360815857511,0.0076402745445199
92.27233553576558,0.0083642015396063
92.30106291295604,0.0074756084086348
92.3297902901465,0.0075373297303639
92.35851766733695,0.0071835150933877
92.38724504452745,0.0070006230458463
92.4159724217179,0.0071788593903025
92.44469979890836,0.0069809817092714
92.4734271760988,0.0066664492458718
92.50215455328927,0.0066954592243715
92.53088193047974,0.0073127865121228
92.5596093076702,0.0077004743949351
92.58833668486066,0.006568619523942
92.61706406205111,0.0074605298232041
92.6457914392416,0.0073229976062568
92.67451881643206,0.007177494070024
92.70324619362252,0.0074675260049859
92.73197357081298,0.0071070093553653
92.76070094800345,0.0070524837071281
92.78942832519392,0.0077577311624094
92.81815570238436,0.0068673581699576
92.84688307957482,0.0077651270213696
92.87561045676529,0.0084066274273582
92.90433783395576,0.0077016588336011
92.9330652111462,0.0075460523901035
92.96179258833668,0.0075554995021698
