timestamp,emg
0.0,0.0077474671411357
0.0287273771904625,0.0083314549364748
0.057454754380925,0.0081216183860731
0.0861821315713875,0.0082401678566765
0.11490950876185,0.0085772685197568
0.1436368859523125,0.0083635493162318
0.172364263142775,0.0086034499369485
0.2010916403332375,0.0073176655129074
0.2298190175237,0.0074261812626036
0.2585463947141626,0.0076067037599652
0.2872737719046251,0.0073596831624614
0.3160011490950876,0.0075329320490418
0.3447285262855501,0.0071719224890618
0.3734559034760126,0.0071873037974353
0.4021832806664751,0.0074286492235701
0.4309106578569376,0.0068624077683724
0.4596380350474001,0.0070243525539307
0.4883654122378627,0.0070526836281951
0.5170927894283252,0.0069613675259271
0.5458201666187876,0.0069430341645785
0.5745475438092502,0.0068819666658537
0.6032749209997127,0.0067038540045593
0.6320022981901752,0.0073363789117518
0.6607296753806376,0.0074603485864684
0.6894570525711002,0.0072274560019676
0.7181844297615627,0.0072652981721771
0.7469118069520252,0.0073040849800142
0.7756391841424878,0.0073694179989028
0.8043665613329503,0.0073902802977508
0.8330939385234127,0.0072556145801111
0.8618213157138752,0.0072982818233031
0.8905486929043378,0.0070994635041764
0.9192760700948004,0.0069917847523242
0.9480034472852628,0.0070813348655861
0.9767308244757252,0.0071032269770572
1.0054582016661875,0.0072621007578957
1.0341855788566503,0.0072913163532218
1.062912956047113,0.0072310977384269
1.0916403332375753,0.0073437187745064
1.1203677104280378,0.0075692822921389
1.1490950876185004,0.0073821854291705
1.1778224648089628,0.0073416901444858
1.2065498419994254,0.0075557901683878
1.235277219189888,0.007494999702033
1.2640045963803503,0.0073843693178572
1.292731973570813,0.0073999960203103
1.3214593507612753,0.0074615529595877
1.350186727951738,0.0073029316618285
1.3789141051422005,0.0075677042947907
1.4076414823326628,0.0075229412410971
1.4363688595231254,0.0073282893438474
1.465096236713588,0.007358764984851
1.4938236139040504,0.007519898485608
1.522550991094513,0.0073597398340679
1.5512783682849756,0.007314451790053
1.580005745475438,0.007316935404287
1.6087331226659003,0.0072204632631383
1.637460499856363,0.0072222011423325
1.6661878770468257,0.0071463396027861
1.694915254237288,0.0072035283103164
1.7236426314277504,0.0072568056572482
1.752370008618213,0.0070977073555
1.7810973858086756,0.0072380731862532
1.809824762999138,0.0070815954032789
1.8385521401896008,0.007337805255969
1.8672795173800631,0.0073837021461163
1.8960068945705255,0.0074698674366222
1.924734271760988,0.0072144968186501
1.9534616489514507,0.0071391866322742
1.982189026141913,0.0075610308114671
2.010916403332375,0.0074964421621883
2.0396437805228382,0.0074178265104775
2.0683711577133006,0.0074031194014201
2.097098534903763,0.0073608899831422
2.125825912094226,0.007232566886884
2.154553289284688,0.0074136670898567
2.1832806664751505,0.0072103894274966
2.2120080436656133,0.0069907573827816
2.2407354208560757,0.0071394330308702
2.269462798046538,0.0072395242638615
2.298190175237001,0.0071875318154012
2.3269175524274632,0.0071795944305103
2.3556449296179256,0.0072737601843077
2.3843723068083884,0.0071571375805845
2.4130996839988508,0.0073885341026169
2.441827061189313,0.0071901718975153
2.470554438379776,0.0071389318708852
2.4992818155702383,0.0073336657369134
2.5280091927607007,0.0071937130605397
2.5567365699511635,0.0071657531947269
2.585463947141626,0.0071456944624742
2.614191324332088,0.0070556975941045
2.6429187015225506,0.0070071236676056
2.6716460787130134,0.007160471838211
2.700373455903476,0.0071787156853579
2.729100833093938,0.0071862141460487
2.757828210284401,0.0072406082122295
2.7865555874748633,0.0073923968368949
2.8152829646653257,0.007304652427007
2.8440103418557885,0.0073143602551742
2.872737719046251,0.0069251941119645
2.9014650962367132,0.0067086746063484
2.930192473427176,0.0076422754110197
2.9589198506176384,0.0067927145112874
2.9876472278081008,0.0042585036601771
3.0163746049985636,0.0092132190262673
3.045101982189026,0.0067988846363796
3.0738293593794883,0.00658131822478
3.102556736569951,0.0072098756011522
3.1312841137604135,0.0072557707632673
3.160011490950876,0.0073433091914748
3.1887388681413387,0.0072673671158731
3.217466245331801,0.0072711988195317
3.2461936225222634,0.0072812236363582
3.274920999712726,0.0071515686686291
3.303648376903189,0.0070517106019541
3.332375754093651,0.0071262665173398
3.3611031312841133,0.0068411193921038
3.389830508474576,0.0066704529208544
3.4185578856650385,0.006864749667304
3.447285262855501,0.0069693882909072
3.4760126400459637,0.0067563799911269
3.504740017236426,0.0071040194487998
3.5334673944268884,0.0091136057677309
3.562194771617351,0.0105181591121145
3.5909221488078136,0.010653558644622
3.619649525998276,0.0120232271913025
3.648376903188739,0.0126683848457154
3.677104280379201,0.0131396451725975
3.705831657569663,0.0140917191176363
3.7345590347601263,0.0142761923698607
3.7632864119505887,0.0125459731765325
3.792013789141051,0.0120056298971906
3.820741166331514,0.0119519634251159
3.849468543521976,0.0118106311640035
3.8781959207124386,0.0113134601898022
3.9069232979029014,0.0094124067579309
3.935650675093364,0.0082605158856113
3.964378052283826,0.0083726361579876
3.993105429474289,0.0076724170469662
4.021832806664751,0.0076875958305257
4.050560183855214,0.0074879582470223
4.0792875610456765,0.0073046216655421
4.108014938236138,0.0072318515322855
4.136742315426601,0.0071333942678564
4.165469692617064,0.0068751488362083
4.194197069807526,0.00690785117769
4.222924446997989,0.0074461451834422
4.251651824188452,0.0073656932533338
4.2803792013789135,0.0072864527088133
4.309106578569376,0.0076196062725253
4.337833955759839,0.0075065617513722
4.366561332950301,0.0074339698210482
4.395288710140764,0.0075255772849192
4.424016087331227,0.0075277481395938
4.452743464521689,0.0071258150040024
4.481470841712151,0.0074196909752946
4.510198218902614,0.0074416845807593
4.538925596093076,0.007179980953025
4.567652973283539,0.0074549126550707
4.596380350474002,0.007445830255127
4.625107727664464,0.0073637082117783
4.6538351048549265,0.0074596848028838
4.682562482045389,0.0074333549483104
4.711289859235851,0.0074527357029339
4.740017236426314,0.007408465362842
4.768744613616777,0.0073754102878725
4.797471990807239,0.0074760666703531
4.8261993679977016,0.0075512955682438
4.854926745188164,0.0075596156501474
4.883654122378626,0.0075984297492009
4.912381499569089,0.0077228751493441
4.941108876759552,0.0078009719663644
4.969836253950014,0.0076326207509448
4.998563631140477,0.0075559659009559
5.0272910083309394,0.0074853865924888
5.056018385521401,0.0075041438252682
5.084745762711864,0.0074453777581656
5.113473139902327,0.0069255607687866
5.142200517092789,0.0070720347249383
5.170927894283252,0.0071677318304673
5.199655271473714,0.0073968848764342
5.2283826486641765,0.0074437567209044
5.257110025854639,0.0074674073337584
5.285837403045101,0.007481979013765
5.314564780235564,0.0074610656880189
5.343292157426027,0.0075920656143876
5.372019534616489,0.006413176535758
5.4007469118069515,0.0062682944584085
5.429474288997414,0.0095325632529503
5.458201666187876,0.0072683398067886
5.486929043378339,0.0069638720640388
5.515656420568802,0.0071003771693971
5.544383797759264,0.007208624294894
5.573111174949727,0.0073708347526397
5.601838552140189,0.007407429699064
5.630565929330651,0.0074011194633474
5.659293306521114,0.0078346504756585
5.688020683711577,0.0076818327458796
5.716748060902039,0.0077771805981896
5.745475438092502,0.0078684146183322
5.7742028152829645,0.0078126279586843
5.8029301924734265,0.0078988046879958
5.831657569663889,0.0076405829064766
5.860384946854352,0.0078647578247459
5.889112324044814,0.0078699682137657
5.917839701235277,0.0078761947534414
5.94656707842574,0.0081758106946887
5.9752944556162015,0.007421317716025
6.004021832806664,0.0076788379183662
6.032749209997127,0.0076104976450933
6.061476587187589,0.0074126598945282
6.090203964378052,0.0073574142484711
6.118931341568515,0.0073315238662356
6.147658718758977,0.0073291830890241
6.176386095949439,0.0073985934545676
6.205113473139902,0.0075588437608026
6.233840850330364,0.0076016192376356
6.262568227520827,0.0076334469624702
6.29129560471129,0.0078011433173957
6.320022981901752,0.0077916284498235
6.3487503590922145,0.0076168254157344
6.377477736282677,0.0074275872218547
6.406205113473139,0.0073888445480756
6.434932490663602,0.0074734259793383
6.463659867854065,0.0074674415239198
6.492387245044527,0.0073945801734774
6.52111462223499,0.0074323531427911
6.549841999425452,0.0077617998850006
6.578569376615914,0.0080836167176511
6.607296753806377,0.0078459792936947
6.636024130996839,0.0077165183768726
6.664751508187302,0.007848801278184
6.693478885377765,0.0077311562855309
6.722206262568227,0.0079509188341055
6.750933639758689,0.0080019973224147
6.779661016949152,0.0074627089607584
6.808388394139614,0.0074583715033663
6.837115771330077,0.0074565392343274
6.86584314852054,0.0075281256354984
6.894570525711002,0.0076620985067056
6.9232979029014645,0.0077729331035573
6.952025280091927,0.0080262329030079
6.980752657282389,0.0079450759948365
7.009480034472852,0.0081133045334603
7.038207411663315,0.0082654339491841
7.066934788853777,0.0080597336891058
7.09566216604424,0.0081890947420236
7.124389543234702,0.0082173861703979
7.153116920425164,0.0078428677506093
7.181844297615627,0.0077308944750323
7.21057167480609,0.007894611873648
7.239299051996552,0.0076954525551111
7.268026429187015,0.0077536610628394
7.296753806377477,0.0077365570078326
7.325481183567939,0.0076052353760913
7.354208560758402,0.0076950340695131
7.382935937948865,0.0078121437752752
7.411663315139327,0.0077300673707736
7.44039069232979,0.0076264342709703
7.469118069520253,0.0078778868882671
7.497845446710715,0.0083748904060112
7.526572823901177,0.008763670458876
7.55530020109164,0.0088278160691446
7.584027578282102,0.0096682640906073
7.612754955472565,0.0121753835408029
7.641482332663028,0.0125154372636829
7.67020970985349,0.0130830402230004
7.698937087043952,0.0146667384238573
7.727664464234415,0.0140031525180854
7.756391841424877,0.0130133691415792
7.78511921861534,0.0127060093571409
7.813846595805803,0.0124065748762331
7.842573972996265,0.0128901477123338
7.871301350186728,0.0102172906260036
7.90002872737719,0.0083708302090956
7.928756104567652,0.0081529764438434
7.957483481758115,0.0083842853483553
7.986210858948578,0.0084816081140019
8.01493823613904,0.008545208193889
8.043665613329502,0.008381486551309
8.072392990519965,0.0077706219917058
8.101120367710427,0.0082264611107534
8.12984774490089,0.0080074739112582
8.158575122091353,0.0078687056512891
8.187302499281815,0.008026432893183
8.216029876472277,0.0077497495580885
8.24475725366274,0.0078098516567062
8.273484630853202,0.007813083437583
8.302212008043664,0.0076662220740162
8.330939385234128,0.0076525699972602
8.35966676242459,0.0077831771820061
8.388394139615052,0.0072572652091594
8.417121516805516,0.0071868094935199
8.445848893995977,0.0071787439945222
8.47457627118644,0.0071416258309435
8.503303648376903,0.0071272431574086
8.532031025567365,0.0071954331462889
8.560758402757827,0.0073648259121908
8.58948577994829,0.0073756816923653
8.618213157138753,0.0073985291691896
8.646940534329215,0.0076037029546586
8.675667911519678,0.0076221907224519
8.70439528871014,0.0073049325069685
8.733122665900602,0.00897558167159
8.761850043091066,0.005642743967029
8.790577420281528,0.0078003889804221
8.81930479747199,0.0077438757858734
8.848032174662453,0.00737852022587
8.876759551852915,0.0077683230826134
8.905486929043377,0.0077946714045887
8.93421430623384,0.0077303337924811
8.962941683424303,0.0076583955515841
8.991669060614765,0.0073925218167309
9.020396437805228,0.0074740565969714
9.04912381499569,0.0075566014192787
9.077851192186152,0.0074148994350758
9.106578569376616,0.0074308296966769
9.135305946567078,0.0072214389906257
9.16403332375754,0.0073975202004044
9.192760700948003,0.0075911837558467
9.221488078138464,0.007349779861653
9.250215455328927,0.0073913781391874
9.278942832519393,0.0072269969908605
9.307670209709851,0.0071761762265369
9.336397586900317,0.0074151439786509
9.36512496409078,0.0072973833562777
9.39385234128124,0.0073797175554551
9.422579718471702,0.0074234863805421
9.451307095662166,0.0070818981024925
9.480034472852628,0.0071747431281831
9.50876185004309,0.0072143398199966
9.537489227233554,0.007214733805199
9.566216604424016,0.007197473394929
9.594943981614476,0.0071950031889041
9.62367135880494,0.0073644467907684
9.652398735995405,0.0080443573365046
9.681126113185863,0.0078467476409108
9.709853490376329,0.0078749221933158
9.73858086756679,0.0080190260840271
9.767308244757253,0.0079250998678433
9.796035621947716,0.0077440707567373
9.824762999138178,0.007699190476537
9.85349037632864,0.0077480216706707
9.882217753519104,0.0077268737509887
9.910945130709566,0.0076976699499709
9.939672507900028,0.0073807777379945
9.968399885090491,0.007463243937209
9.997127262280951,0.0075764607317584
10.025854639471415,0.0074742008912712
10.05458201666188,0.0072857253428776
10.08330939385234,0.0073165874799829
10.112036771042805,0.0073949492988247
10.140764148233266,0.0074281637549643
10.169491525423728,0.0074033244286927
10.19821890261419,0.0073460408338389
10.226946279804654,0.0073418689011878
10.255673656995116,0.0073652732833339
10.284401034185578,0.0072384791914116
10.31312841137604,0.0070500380355714
10.341855788566503,0.0070700607256329
10.370583165756964,0.0071154767021696
10.399310542947427,0.0069716181015381
10.428037920137893,0.0068846852243178
10.456765297328351,0.0068853581726004
10.485492674518817,0.0070797664822885
10.51422005170928,0.0070796689335959
10.54294742889974,0.0069234213124078
10.571674806090202,0.0070816210568885
10.600402183280666,0.0071683932163702
10.629129560471128,0.0072989265222374
10.65785693766159,0.0073486114989287
10.686584314852054,0.0071853547223086
10.715311692042516,0.0075056750093685
10.744039069232976,0.007314967094619
10.77276644642344,0.0072575183574927
10.801493823613905,0.007303789095385
10.830221200804363,0.0073041062325407
10.858948577994829,0.0070101298279261
10.88767595518529,0.0072675273093621
10.916403332375753,0.0073522749863642
10.945130709566216,0.0071612695108818
10.973858086756678,0.0071367119267125
11.00258546394714,0.0073012215075571
11.031312841137604,0.0072235947730665
11.060040218328066,0.0071120305771295
11.088767595518528,0.0072440268524533
11.117494972708991,0.0071766263663538
11.146222349899451,0.0069503935759593
11.174949727089915,0.0069967366761289
11.20367710428038,0.0069028450647433
11.23240448147084,0.0066808504631143
11.261131858661305,0.0066722785577542
11.289859235851766,0.0069329577005047
11.318586613042228,0.0065813795683998
11.34731399023269,0.0062114921682698
11.376041367423154,0.0073192116477416
11.404768744613616,0.0065646115253295
11.433496121804078,0.0064573181668134
11.462223498994542,0.0091835857866754
11.490950876185003,0.0101214488059053
11.519678253375464,0.0100604426263764
11.548405630565927,0.0133372299471511
11.577133007756393,0.0143524050829944
11.605860384946851,0.0158501195624198
11.634587762137317,0.0166306079707286
11.66331513932778,0.0169071284634313
11.69204251651824,0.0167152173301717
11.720769893708704,0.0159919519231549
11.749497270899166,0.0147585576839826
11.778224648089628,0.012919500171739
11.806952025280092,0.0114357349625257
11.835679402470554,0.0099871382629653
11.864406779661016,0.0081770486915363
11.89313415685148,0.0074464425296151
11.92186153404194,0.0074066585859285
11.950588911232405,0.0072704395706559
11.979316288422869,0.0076974684612835
12.008043665613329,0.0074411571547941
12.03677104280379,0.0068460223116643
12.065498419994254,0.0076632177842789
12.094225797184716,0.0076327441486585
12.122953174375178,0.0075116502202933
12.151680551565642,0.0076365467323171
12.180407928756104,0.0069376520564362
12.209135305946566,0.0076652175841828
12.23786268313703,0.0080095100836093
12.266590060327491,0.0073170207332557
12.295317437517951,0.0074184591363005
12.324044814708415,0.0072549364035849
12.35277219189888,0.0075115041737502
12.38149956908934,0.0073647394096267
12.410226946279804,0.0075379401457576
12.438954323470266,0.0073498759901379
12.467681700660728,0.0074239777754945
12.496409077851192,0.0075290083766936
12.525136455041654,0.0072845012855211
12.553863832232116,0.0073078462832672
12.58259120942258,0.0077349994177105
12.611318586613042,0.0069656451824053
12.640045963803503,0.0069168770706271
12.668773340993967,0.0071630765886481
12.697500718184427,0.0070814278432263
12.726228095374893,0.0070599894245098
12.754955472565356,0.0071689662845982
12.783682849755817,0.0068907528308187
12.81241022694628,0.0069015996907079
12.841137604136742,0.0068291718819139
12.869864981327204,0.0065646282495773
12.898592358517666,0.006814021313289
12.92731973570813,0.0071501922582127
12.956047112898592,0.0070101976571031
12.984774490089054,0.0071788037503696
13.013501867279516,0.007202600478606
13.04222924446998,0.0071939424258485
13.07095662166044,0.0073626902696747
13.099683998850905,0.0073679523177766
13.128411376041369,0.0070364773225893
13.157138753231829,0.0067355625744817
13.185866130422292,0.0069068314369484
13.214593507612754,0.0068520432261876
13.243320884803216,0.0069354818822108
13.272048261993678,0.007270434255312
13.300775639184142,0.0070702772554129
13.329503016374604,0.0070497438309827
13.358230393565066,0.0069747071406548
13.38695777075553,0.0071854510144496
13.415685147945991,0.0072096913941087
13.444412525136451,0.0075619509268776
13.473139902326915,0.0076298670507511
13.50186727951738,0.0064886988221717
13.53059465670784,0.0070614813998424
13.559322033898304,0.0069197548389881
13.588049411088766,0.0069232383394945
13.616776788279228,0.0068361021136508
13.645504165469692,0.0068102827548901
13.674231542660154,0.0067501834263946
13.702958919850616,0.0067588886106881
13.73168629704108,0.0067381172017856
13.76041367423154,0.0067689866244519
13.789141051422003,0.006757685036901
13.817868428612467,0.0067657441994158
13.846595805802927,0.0068272273443249
13.875323182993393,0.0067034594168308
13.904050560183856,0.0069281155087916
13.932777937374317,0.0070789617934255
13.96150531456478,0.00700704028833
13.990232691755242,0.0067939942078265
14.018960068945704,0.0065879461902144
14.047687446136166,0.0070948388600836
14.07641482332663,0.0068762444582135
14.105142200517092,0.0069355759314324
14.133869577707554,0.0069252567680946
14.162596954898016,0.0068038407261875
14.19132433208848,0.0070975327355727
14.22005170927894,0.0070614294407545
14.248779086469405,0.006832167620912
14.277506463659869,0.0069455034608142
14.306233840850329,0.0072896932262425
14.334961218040792,0.0070723754180306
14.363688595231254,0.007113611189731
14.392415972421716,0.0067861500656015
14.42114334961218,0.0071035843046676
14.449870726802642,0.007086957041522
14.478598103993104,0.0070609075252744
14.507325481183567,0.0070061348385003
14.53605285837403,0.0071411055948815
14.564780235564491,0.0069819964112393
14.593507612754957,0.0072407404544349
14.622234989945415,0.007295094937721
14.65096236713588,0.0072806218923669
14.679689744326344,0.0073253917146801
14.708417121516804,0.007120276716545
14.737144498707266,0.0072356606172057
14.76587187589773,0.0074598048779319
14.794599253088192,0.0070429743359128
14.823326630278654,0.0073178150627327
14.852054007469118,0.0071205886328576
14.88078138465958,0.0073779798884478
14.90950876185004,0.0071613629473406
14.938236139040503,0.0072174736764127
14.966963516230969,0.0068715700751852
14.995690893421427,0.0067718107910156
15.024418270611893,0.0068323771354518
15.053145647802356,0.006879053727244
15.081873024992817,0.0069264054915738
15.11060040218328,0.0069086272471095
15.139327779373742,0.0070002259698246
15.168055156564204,0.0064480931829128
15.196782533754668,0.0068889700177837
15.22550991094513,0.0070141255909804
15.254237288135592,0.0066199840172803
15.282964665326055,0.0064980803809695
15.311692042516515,0.0064313834575212
15.34041941970698,0.0063335431255243
15.369146796897445,0.0065773375299211
15.397874174087905,0.0067407186267429
15.426601551278369,0.0067412152933342
15.45532892846883,0.0065319761287298
15.484056305659292,0.0079729721257056
15.512783682849754,0.0062597892946391
15.541511060040218,0.0052527817089201
15.57023843723068,0.0123525055829228
15.598965814421142,0.0135649195376254
15.627693191611606,0.0148095177517051
15.656420568802067,0.0135651033062023
15.68514794599253,0.0143990841692382
15.713875323182991,0.0151553682698797
15.742602700373457,0.0139227720127688
15.771330077563915,0.0135010545755196
15.80005745475438,0.0118010694314223
15.828784831944844,0.0093412942051508
15.857512209135304,0.0082325270856192
15.886239586325768,0.0078940001721866
15.91496696351623,0.0074755683732262
15.943694340706692,0.0068113996821103
15.972421717897156,0.0068875899111639
16.001149095087616,0.0068977335518151
16.02987647227808,0.0068200953143613
16.058603849468543,0.0071043147644284
16.087331226659003,0.0070989313713676
16.116058603849467,0.0070364989467687
16.14478598103993,0.0073813337283799
16.17351335823039,0.0074478869846608
16.202240735420855,0.0073215365072031
16.23096811261132,0.0073696570165323
16.25969548980178,0.0073202045654899
16.288422866992242,0.0069506126011291
16.317150244182706,0.0068372076892601
16.345877621373166,0.0068252616955368
16.37460499856363,0.0066305795310452
16.403332375754093,0.0065277483580829
16.432059752944554,0.0062930459410441
16.460787130135017,0.0079519586058143
16.48951450732548,0.0073722915429147
16.51824188451594,0.0054740094709484
16.546969261706405,0.0068025587558272
16.57569663889687,0.0066208272817979
16.60442401608733,0.0068908317416123
16.633151393277792,0.0067989929682207
16.661878770468256,0.0065394163076143
16.690606147658716,0.0065618693385691
16.71933352484918,0.0067386029895948
16.748060902039644,0.0066428943877772
16.776788279230104,0.0065706125164654
16.805515656420567,0.0066996910008693
16.83424303361103,0.0069356113692722
16.86297041080149,0.0069451941256657
16.891697787991955,0.0070530772652898
16.92042516518242,0.0070047487758603
16.94915254237288,0.0066491211016405
16.977879919563343,0.0067913570071367
17.006607296753806,0.006883560958967
17.035334673944266,0.0066881026497874
17.06406205113473,0.0068308933431345
17.092789428325194,0.006352463736846
17.121516805515654,0.0071210755651754
17.150244182706118,0.0071122910614255
17.17897155989658,0.0061017343523525
17.20769893708704,0.0070093784635365
17.236426314277505,0.0078049354228319
17.26515369146797,0.0056135604913244
17.29388106865843,0.006339173083997
17.322608445848893,0.0090322974114899
17.351335823039356,0.0068338085200796
17.380063200229817,0.0068783753765563
17.40879057742028,0.0070916923447312
17.437517954610744,0.0070261318575761
17.466245331801204,0.0071784072391751
17.494972708991668,0.0068779550438197
17.52370008618213,0.0069366029211998
17.55242746337259,0.0069204558631344
17.581154840563055,0.0067618850280397
17.60988221775352,0.0065873635161599
17.63860959494398,0.0064541858915312
17.667336972134443,0.0063634825807888
17.696064349324907,0.0062679427693489
17.724791726515367,0.0061935168914374
17.75351910370583,0.0061535580690592
17.782246480896294,0.0060527654656494
17.810973858086754,0.0059760862162414
17.839701235277218,0.006031712936773
17.86842861246768,0.005985786997741
17.897155989658142,0.0063398783609551
17.925883366848606,0.0067289825451947
17.95461074403907,0.006468999534969
17.98333812122953,0.0065096287333762
18.012065498419993,0.0067105050760156
18.040792875610457,0.0065377115944104
18.069520252800917,0.0066811980488447
18.09824762999138,0.0067278209648192
18.126975007181844,0.0065194288928152
18.155702384372304,0.006701270780334
18.184429761562768,0.0065968782830714
18.213157138753232,0.0067242594659443
18.241884515943692,0.006872664716476
18.270611893134156,0.0068937255840692
18.29933927032462,0.0071186620614913
18.32806664751508,0.007117631750715
18.356794024705543,0.0067421064779594
18.385521401896007,0.0068820171890308
18.414248779086467,0.0071995397963578
18.44297615627693,0.0066767535269451
18.47170353346739,0.0068963404283257
18.500430910657855,0.006310842928352
18.52915828784832,0.0064830203952565
18.557885665038786,0.0065590880673839
18.58661304222924,0.00646483043596
18.615340419419702,0.0065416974189511
18.64406779661017,0.0062335045501472
18.67279517380063,0.0065248865835594
18.701522550991093,0.0067672690876027
18.730249928181557,0.0065080175771704
18.758977305372017,0.0067210386104131
18.78770468256248,0.0067273014536232
18.816432059752945,0.0064932564539933
18.845159436943405,0.0065711680381114
18.87388681413387,0.0064262574265613
18.902614191324332,0.0064347197604889
18.931341568514792,0.0064148399898994
18.960068945705256,0.0061138269893572
18.98879632289572,0.0061488338696693
19.01752370008618,0.0065946781392994
19.046251077276644,0.0065297661473652
19.074978454467107,0.0066172383148786
19.103705831657567,0.0064684027259461
19.13243320884803,0.0067790695541852
19.161160586038495,0.0068970237731788
19.189887963228955,0.0067802379419796
19.21861534041942,0.0064227825438859
19.24734271760988,0.0062462725565707
19.276070094800343,0.006285899157224
19.30479747199081,0.0063002396717445
19.33352484918127,0.0065159647801019
19.36225222637173,0.0063198061578263
19.390979603562194,0.0063988501603808
19.419706980752657,0.0065203536753255
19.44843435794312,0.0067670674393351
19.47716173513358,0.0066693678261596
19.505889112324045,0.0065701762476875
19.534616489514505,0.0078675774964698
19.56334386670497,0.0108028770847229
19.592071243895433,0.0122934156056164
19.620798621085893,0.0129031355123797
19.649525998276356,0.01334490963932
19.67825337546682,0.0136295863992627
19.70698075265728,0.0162399189065974
19.735708129847744,0.0166317834641958
19.764435507038208,0.0125152438165038
19.793162884228668,0.0100630177880268
19.82189026141913,0.0086123492199003
19.850617638609595,0.0123361698967833
19.879345015800055,0.0066280995442685
19.90807239299052,0.0071617101124416
19.936799770180983,0.004413866395751
19.965527147371443,0.0064147471660756
19.994254524561907,0.0069348488015502
20.02298190175237,0.0061735868286995
20.05170927894283,0.0065358677558825
20.080436656133298,0.0071672720217299
20.10916403332376,0.0065170503732293
20.137891410514214,0.006372609838463
20.16661878770468,0.0068461748988623
20.195346164895145,0.0067206185361019
20.224073542085605,0.0067220911259067
20.25280091927607,0.0061849140255575
20.281528296466533,0.0061786928389972
20.310255673656993,0.0062697983040409
20.338983050847457,0.0062622320534251
20.36771042803792,0.006217816750652
20.39643780522838,0.0063476491015995
20.425165182418844,0.0064633554605757
20.453892559609308,0.0064731439268049
20.482619936799768,0.0065593509015683
20.511347313990232,0.0064527514358356
20.540074691180696,0.0065027732697368
20.568802068371156,0.0065400979805694
20.59752944556162,0.0064121663552566
20.62625682275208,0.0069487355055863
20.654984199942543,0.0066208191090509
20.683711577133007,0.0072622630310154
20.712438954323467,0.0059631883282771
20.74116633151393,0.0061750812593622
20.76989370870439,0.0073938207047767
20.798621085894855,0.0058595025179009
20.82734846308532,0.0061619522230409
20.856075840275786,0.0063093201913612
20.88480321746624,0.0063446418416375
20.913530594656702,0.00669553610958
20.94225797184717,0.006675497311045
20.97098534903763,0.006524694214748
20.999712726228093,0.0065831483297829
21.028440103418557,0.0064714627182884
21.057167480609017,0.0066209664897503
21.08589485779948,0.0066482876775221
21.114622234989945,0.0061779920518565
21.143349612180405,0.0067348048152474
21.17207698937087,0.0065067360128111
21.200804366561332,0.0058805659399786
21.229531743751792,0.0061299297922309
21.258259120942256,0.006643541789454
21.28698649813272,0.0064159573277966
21.31571387532318,0.0066227358904469
21.344441252513644,0.0066648669358895
21.373168629704107,0.0068880797270575
21.401896006894567,0.0066125718070003
21.43062338408503,0.0060882113186364
21.459350761275495,0.0064067377525114
21.488078138465955,0.0064188712329608
21.51680551565642,0.0068949084349272
21.54553289284688,0.0058737108570699
21.574260270037342,0.0064386814795314
21.60298764722781,0.0061702380250947
21.63171502441827,0.0063324053767646
21.66044240160873,0.0062240625375759
21.689169778799194,0.0062721920351294
21.717897155989657,0.0061219982148977
21.74662453318012,0.0060433618624278
21.77535191037058,0.0064276807661557
21.804079287561045,0.0064263132217367
21.832806664751505,0.0063839294087263
21.86153404194197,0.0065349409690666
21.890261419132433,0.0065073525054935
21.918988796322893,0.0064249053042567
21.947716173513356,0.0063982755095391
21.97644355070382,0.0065782697136977
22.00517092789428,0.0065082428633838
22.033898305084744,0.0064193470502669
22.062625682275208,0.0065850610775883
22.091353059465668,0.006575907447254
22.12008043665613,0.006424789823765
22.148807813846595,0.0067688900410217
22.177535191037055,0.0066754455811471
22.20626256822752,0.0066814197069895
22.234989945417983,0.0067115719198197
22.263717322608443,0.0059904735400043
22.292444699798907,0.0064266655319916
22.32117207698937,0.0064241067506881
22.34989945417983,0.0062817930870157
22.378626831370298,0.0063288744407097
22.40735420856076,0.0062869757286676
22.436081585751214,0.0058870549346216
22.46480896294168,0.0061065343880278
22.493536340132145,0.006223725193502
22.522263717322605,0.0055682817512731
22.55099109451307,0.0057847713714853
22.579718471703533,0.0059889583419381
22.608445848893993,0.0059703386294138
22.637173226084457,0.0059787854237459
22.66590060327492,0.0060903133331783
22.69462798046538,0.0061858373786775
22.723355357655844,0.006125580717141
22.752082734846308,0.006110441266083
22.780810112036768,0.0060680588478249
22.809537489227232,0.0056675884563731
22.838264866417695,0.0061142406092224
22.866992243608156,0.0062181437892185
22.89571962079862,0.0064004870939246
22.924446997989083,0.0064884647359764
22.953174375179543,0.0062809758904963
22.981901752370007,0.0065806025299355
23.01062912956047,0.0069696787613733
23.03935650675093,0.0069460359709977
23.06808388394139,0.0069081318243246
23.096811261131855,0.0071655816079833
23.12553863832232,0.0066160703595371
23.154266015512786,0.0067548652142753
23.18299339270325,0.0060463269721064
23.211720769893702,0.0071312217137504
23.24044814708417,0.0079655798593622
23.269175524274633,0.0042417657573454
23.297902901465093,0.0067356083391757
23.326630278655557,0.0066201338574779
23.35535765584602,0.0058099720409318
23.38408503303648,0.0061362654841601
23.412812410226945,0.005347983176875
23.44153978741741,0.0086600643063065
23.47026716460787,0.0098936013884756
23.498994541798332,0.0021061667839313
23.527721918988796,0.0079791045169257
23.556449296179256,0.0150984545420732
23.58517667336972,0.0146561776010808
23.613904050560183,0.0139598943239714
23.642631427750644,0.0138624544790414
23.671358804941107,0.0137060343284856
23.70008618213157,0.0133928629118205
23.72881355932203,0.0119000835832096
23.757540936512495,0.0110819645813439
23.78626831370296,0.012178420036073
23.81499569089342,0.0051445008487302
23.84372306808388,0.0052675409890916
23.872450445274342,0.0078986036123312
23.90117782246481,0.0071740221021207
23.92990519965527,0.006899594870477
23.958632576845737,0.0069013214697745
23.987359954036194,0.0068128364353095
24.016087331226657,0.0069817441233288
24.04481470841712,0.0065509176042224
24.07354208560758,0.0063180157239474
24.102269462798045,0.0066893782684977
24.13099683998851,0.0063120686926269
24.15972421717897,0.0063959029701092
24.188451594369432,0.006437127260951
24.217178971559896,0.0063290202973587
24.245906348750356,0.0063818448649181
24.27463372594082,0.0064756511304906
24.303361103131284,0.0065731549402275
24.332088480321744,0.0066674870750752
24.360815857512208,0.0066976116596666
24.38954323470267,0.0066907786450353
24.41827061189313,0.0065059751499624
24.446997989083595,0.0065309962011759
24.47572536627406,0.0070719004187873
24.50445274346452,0.006618144385775
24.533180120654983,0.0066071783931879
24.561907497845446,0.0067834727643853
24.590634875035907,0.006666754030292
24.61936225222637,0.0066650573136157
24.64808962941683,0.0066692344448479
24.676817006607298,0.0065091163597637
24.70554438379776,0.0064455893960055
24.73427176098822,0.0065384373305117
24.76299913817868,0.0067137206247708
24.791726515369145,0.0065321180303265
24.82045389255961,0.0063177625176059
24.84918126975007,0.0068233723165686
24.877908646940533,0.0065729099017487
24.906636024130997,0.0066114772503006
24.935363401321457,0.0066416647966771
24.96409077851192,0.0066107050274624
24.992818155702384,0.0065550773039796
25.021545532892844,0.0064805648837407
25.050272910083308,0.0065713288005655
25.07900028727377,0.0068139408916097
25.10772766446423,0.0062933251569141
25.136455041654695,0.0062071853080038
25.16518241884516,0.0063040856064618
25.19390979603562,0.0059126133733921
25.222637173226083,0.0056336033700005
25.251364550416547,0.0066374973195045
25.280091927607007,0.0061470524272051
25.30881930479747,0.0056260004806065
25.337546681987934,0.0067936969404624
25.36627405917839,0.0063885658843581
25.395001436368855,0.006477132972581
25.42372881355932,0.0065696293146526
25.452456190749785,0.0063161537598724
25.48118356794025,0.0066081704636102
25.50991094513071,0.0066674468847366
25.53863832232117,0.0063637412827514
25.567365699511633,0.006508039256825
25.596093076702097,0.0067257780501292
25.624820453892557,0.0061303372792855
25.65354783108302,0.0061174639862765
25.682275208273484,0.0062861719576187
25.711002585463945,0.0062671537416374
25.73972996265441,0.0063197369875886
25.768457339844872,0.0062523936301616
25.797184717035332,0.0062952977492757
25.825912094225796,0.006205003158638
25.85463947141626,0.0065319408796349
25.88336684860672,0.0064395228313812
25.912094225797183,0.0058759199535821
25.940821602987647,0.0063071248953727
25.969548980178107,0.0061532720743184
25.99827635736857,0.0062691539072908
26.027003734559035,0.0062375725757465
26.055731111749495,0.0058868290591802
26.08445848893996,0.0063904953673758
26.113185866130426,0.006348733962443
26.14191324332088,0.00624950135648
26.170640620511342,0.0063737065133066
26.19936799770181,0.0063681527178566
26.22809537489227,0.0061633268356096
26.256822752082737,0.0065571676039914
26.285550129273197,0.0064418050920029
26.314277506463657,0.0063351836598728
26.34300488365412,0.0064035525117087
26.371732260844585,0.0063161346057184
26.400459638035045,0.0062590823917014
26.42918701522551,0.0063840130296866
26.457914392415972,0.0064961334242901
26.486641769606432,0.006271900933038
26.515369146796896,0.006334854228561
26.544096523987356,0.0061331646764502
26.57282390117782,0.0062886971138335
26.601551278368284,0.0065127787272566
26.630278655558744,0.0064288785350883
26.659006032749208,0.0065726497964699
26.68773340993967,0.00608646073969
26.71646078713013,0.0060722011914841
26.745188164320595,0.0066908128828485
26.77391554151106,0.0062659231884709
26.80264291870152,0.0062427040744312
26.831370295891983,0.0062434733248436
26.860097673082446,0.0061642288437123
26.888825050272903,0.0063639568720882
26.91755242746337,0.0064972656925325
26.94627980465383,0.0062319677251965
26.975007181844298,0.0069950810329627
27.00373455903476,0.0065067276537622
27.03246193622522,0.0064436047355343
27.06118931341568,0.0064141978041423
27.089916690606145,0.006307064445211
27.11864406779661,0.0062632359964044
27.14737144498707,0.0062831932167934
27.176098822177533,0.0060323518719705
27.204826199367997,0.0060242589104649
27.233553576558457,0.0060775693783548
27.26228095374892,0.0062049677040661
27.291008330939384,0.0060138862806603
27.319735708129844,0.0061311171067822
27.348463085320308,0.0062035034519092
27.37719046251077,0.0064632100160612
27.40591783970123,0.0107143731917967
27.434645216891695,0.00044321289487017054
27.46337259408216,0.0029644681724226643
27.49209997127262,0.003409569803732512
27.520827348463083,0.02843350421799808
27.549554725653547,0.008820925475754188
27.578282102844007,0.011783286521402937
27.60700948003447,0.0071757562730799555
27.635736857224934,0.0123205912514185
27.66446423441539,0.0105393721064344
27.693191611605855,0.0138592097173213
27.72191898879632,0.0110042522563919
27.750646365986785,0.0144481740543806
27.77937374317725,0.002282981973549
27.80810112036771,0.0064389917246824
27.83682849755817,0.0061177636854127
27.865555874748633,0.0065732259849727
27.894283251939097,0.0066626295988289
27.923010629129557,0.0064764376114555
27.95173800632002,0.0066266766368852
27.980465383510484,0.0064203770206053
28.009192760700945,0.0061888739598997
28.03792013789141,0.0065267045109212
28.066647515081872,0.0059077925050792
28.095374892272332,0.0060520880695007
28.124102269462796,0.0060744544943387
28.15282964665326,0.0059206390822111
28.18155702384372,0.0061164723578142
28.210284401034183,0.0061022646038843
28.239011778224647,0.0057868938837191
28.267739155415107,0.0057666946417429
28.29646653260557,0.0056792473772028
28.325193909796035,0.0056343618288077
28.353921286986495,0.005809514639949
28.38264866417696,0.0061612587903788
28.411376041367426,0.0059840897561571
28.44010341855788,0.0057193566067454
28.468830795748342,0.0060459191853355
28.49755817293881,0.0059430995804681
28.52628555012927,0.0058700708586704
28.555012927319737,0.0058705629910599
28.583740304510197,0.0059751263071816
28.612467681700657,0.0058048240789101
28.64119505889112,0.0059097339927128
28.669922436081585,0.0062318203815497
28.698649813272045,0.0061528645324078
28.72737719046251,0.0060292945331352
28.756104567652972,0.0063903832458648
28.784831944843432,0.0075724200077696
28.813559322033896,0.0048515393367374
28.84228669922436,0.0060341135814847
28.87101407641482,0.0060690429905515
28.899741453605284,0.0060241249041717
28.928468830795747,0.0057651713689003
28.957196207986208,0.0061371119035744
28.98592358517667,0.006148778632741
29.014650962367135,0.0062786332655962
29.043378339557595,0.0063911419565319
29.07210571674806,0.0063139238066746
29.10083309393852,0.0064200233194213
29.129560471128983,0.0062816329819447
29.158287848319446,0.0062305949993107
29.18701522550991,0.006225208930911
29.21574260270037,0.0063070571156789
29.24446997989083,0.0059746919206715
29.273197357081298,0.0059621883967822
29.30192473427176,0.00669152310368
29.33065211146222,0.0061620946395461
29.359379488652685,0.0065973168378852
29.388106865843145,0.0064076125096345
29.41683424303361,0.0065026534792936
29.445561620224073,0.0066906569629649
29.474288997414533,0.0064658364971665
29.503016374604996,0.0061113082235678
29.53174375179546,0.0062499822000909
29.56047112898592,0.0064279592230737
29.589198506176384,0.0058477734232216
29.617925883366848,0.0060791744351523
29.646653260557308,0.0061036024470795
29.67538063774777,0.0063313774474767
29.704108014938235,0.0063158953036718
29.732835392128695,0.0060463394202268
29.76156276931916,0.0062036211856826
29.790290146509623,0.0062228319864959
29.819017523700083,0.0060761531865754
29.847744900890547,0.0060353277711496
29.87647227808101,0.0060684046461555
29.90519965527147,0.0057476660572728
29.933927032461938,0.0059561700376311
29.9626544096524,0.0063597109315125
29.991381786842854,0.0054076974657984
30.02010916403332,0.004719839831439
30.048836541223785,0.0071353391273059
30.07756391841425,0.0055487826855459
30.10629129560471,0.0057349106861575
30.135018672795173,0.0060347794759528
30.163746049985633,0.0057923297760519
30.192473427176097,0.0059722931505306
30.22120080436656,0.005891805794561
30.24992818155702,0.0057964216153441
30.278655558747484,0.005876095765539
30.307382935937948,0.006016263220121
30.336110313128408,0.0061382569623354
30.364837690318872,0.0059148635429303
30.393565067509336,0.0060392755574838
30.422292444699796,0.0061160267578153
30.45101982189026,0.0059400024719416
30.479747199080723,0.0057324300671443
30.508474576271183,0.0061212288350377
30.537201953461647,0.005818612365409
30.56592933065211,0.0059940360747093
30.59465670784257,0.006063678148181
30.623384085033035,0.0059967177724098
30.6521114622235,0.006192124035376
30.68083883941396,0.0061044510238245
30.709566216604426,0.0060506033529968
30.73829359379489,0.0063518656499184
30.767020970985342,0.005977878524056
30.79574834817581,0.0057786476158274
30.824475725366273,0.0060326614986943
30.853203102556733,0.0060988466576677
30.881930479747197,0.0058554104903539
30.91065785693766,0.0061220953167087
30.93938523412812,0.0058006014265439
30.968112611318585,0.0057853691318859
30.99683998850905,0.0059144683070921
31.02556736569951,0.0059329265494461
31.054294742889972,0.0059745891617471
31.083022120080436,0.0059287667773228
31.111749497270896,0.0059205018094043
31.14047687446136,0.0059239436528302
31.169204251651824,0.0058993869965236
31.197931628842284,0.0058012123829513
31.226659006032747,0.0058082272310664
31.25538638322321,0.0060858817890139
31.28411376041367,0.0061694785692967
31.312841137604135,0.0060523924099096
31.3415685147946,0.0058916931008311
31.37029589198506,0.0062970833827633
31.39902326917552,0.0073497362023939
31.427750646365983,0.0058011285138618
31.456478023556446,0.0116287601560205
31.48520540074691,0.0127899933230403
31.513932777937377,0.0134179493033603
31.54266015512783,0.0133457297648692
31.571387532318298,0.013908710510112
31.60011490950876,0.0131432095437762
31.62884228669922,0.0123756582289984
31.657569663889685,0.0141438067551041
31.68629704108015,0.008563103750881
31.71502441827061,0.0076082568756479
31.743751795461073,0.0063828431328241
31.772479172651536,0.0062800524831276
31.801206549841996,0.006264691628785
31.82993392703246,0.0063681508708403
31.858661304222924,0.0062150651294784
31.887388681413384,0.0063060507007192
31.916116058603848,0.0063885517433484
31.94484343579431,0.0061625876216783
31.97357081298477,0.0059527269169678
32.00229819017523,0.0060323826648654
32.031025567365695,0.0060248183245429
32.05975294455616,0.0063738974659405
32.08848032174662,0.006439018646873
32.11720769893709,0.0064617177376703
32.14593507612755,0.0067183656662539
32.17466245331801,0.0067826948135592
32.20338983050847,0.0067522951756096
32.232117207698934,0.0067264423875308
32.2608445848894,0.0065176448540804
32.28957196207986,0.0063715296874572
32.318299339270325,0.0064336605616054
32.34702671646078,0.006615843329111
32.375754093651246,0.0062403393945433
32.40448147084171,0.0068392541740598
32.43320884803217,0.0067081332055381
32.46193622522264,0.0065658026770744
32.4906636024131,0.0065486047568913
32.51939097960356,0.0068189720868387
32.54811835679402,0.005918410736918
32.576845733984484,0.0073336390622272
32.60557311117495,0.0066116111858503
32.63430048836541,0.0060322717485664
32.663027865555875,0.0065049743268345
32.69175524274633,0.0066421524125344
32.720482619936796,0.006242351931266
32.74920999712726,0.0068023553579323
32.77793737431772,0.0068029802215413
32.80666475150819,0.0065861289172821
32.83539212869865,0.0065959073340072
32.86411950588911,0.0066850918214728
32.89284688307957,0.0067142566104564
32.921574260270035,0.0065800686071459
32.9503016374605,0.007067286432277
32.97902901465096,0.0058296622971682
33.007756391841426,0.0079236544072255
33.03648376903188,0.0068092714580599
33.065211146222346,0.0062355559748473
33.09393852341281,0.0070331539577759
33.12266590060327,0.0071875002578577
33.15139327779374,0.0055434691524887
33.1801206549842,0.0064099562384167
33.20884803217466,0.0070171936167803
33.23757540936512,0.0061607264130348
33.266302786555585,0.0059198651931307
33.29503016374605,0.0069194715581954
33.32375754093651,0.0063242584747331
33.352484918126976,0.0061360707743945
33.38121229531743,0.0067910573464806
33.409939672507896,0.0068456452806432
33.43866704969836,0.0054313676022738
33.46739442688882,0.0061601955596448
33.49612180407929,0.0061797199866293
33.52484918126975,0.0063766732810794
33.55357655846021,0.0064003761894934
33.58230393565067,0.0066881801987182
33.611031312841135,0.0070041201129915
33.6397586900316,0.007011471550559
33.66848606722206,0.0066624870611847
33.697213444412526,0.0069183608326327
33.72594082160298,0.0069955557360799
33.754668198793446,0.0065980490707649
33.78339557598391,0.006375583781089
33.812122953174374,0.0067541330042199
33.84085033036484,0.0062536557664994
33.8695777075553,0.0052024888296526
33.89830508474576,0.0090399751573388
33.92703246193622,0.0036036896075189
33.955759839126685,0.0043804854980086
33.98448721631715,0.007075674064368
34.01321459350761,0.0062348404510103
34.041941970698076,0.0060858661172376
34.07066934788853,0.0068371457192592
34.099396725078996,0.0074136336007476
34.12812410226946,0.005080303872258
34.156851479459924,0.0062359060499321
34.18557885665039,0.0058584830064899
34.21430623384085,0.0061293996528057
34.24303361103131,0.0061103253534816
34.27176098822177,0.0061456826896456
34.300488365412235,0.0061038777259385
34.3292157426027,0.0061959559468606
34.35794311979316,0.0068265863708856
34.386670496983626,0.0058061292683461
34.41539787417408,0.0062490941998414
34.44412525136455,0.0062675722357797
34.47285262855501,0.0058733046617428
34.501580005745474,0.0060739642767612
34.53030738293594,0.0060876522664773
34.5590347601264,0.005982655031747
34.58776213731686,0.00609296210339
34.61648951450732,0.0059443368284582
34.645216891697785,0.0058905063995262
34.67394426888825,0.0061807483811203
34.70267164607871,0.0054760966479648
34.73139902326918,0.0053309289916868
34.76012640045963,0.0056415770642316
34.7888537776501,0.0056032062428601
34.81758115484056,0.0053205460835662
34.846308532031024,0.0059231162984534
34.87503590922149,0.0056503126912197
34.90376328641195,0.0055814603560565
34.93249066360241,0.0055504573494513
34.96121804079287,0.0056021687840895
34.989945417983336,0.0057660883952206
35.0186727951738,0.005801013625633
35.04740017236426,0.005523924665766
35.07612754955473,0.0059481900148376
35.10485492674518,0.0059310120392087
35.13358230393565,0.0065639277773939
35.16230968112611,0.0055478808753636
35.191037058316574,0.0053984527086861
35.21976443550704,0.0061219026965639
35.2484918126975,0.0056826553483405
35.27721918988796,0.0061746871154885
35.30594656707842,0.006721740489773
35.334673944268886,0.0064268870410719
35.36340132145935,0.0076001441213686
35.39212869864981,0.0099172963280435
35.42085607584027,0.010608935216548
35.44958345303073,0.0106890327982398
35.4783108302212,0.0109809431353545
35.50703820741166,0.0110869465441387
35.535765584602125,0.01216148841885
35.56449296179259,0.0118422943516723
35.593220338983045,0.0115866578887369
35.62194771617351,0.0095084327183756
35.65067509336397,0.0093226984660215
35.679402470554436,0.007773021399808
35.7081298477449,0.0076913279532923
35.73685722493536,0.0074777457161813
35.76558460212582,0.0062213083826374
35.794311979316284,0.0056848213763141
35.82303935650675,0.005746585684232
35.85176673369721,0.0058535207371278
35.880494110887675,0.005707578546765
35.90922148807814,0.0059889161725604
35.937948865268595,0.0060018344463943
35.96667624245906,0.0056967720121491
35.99540361964952,0.0060720809347676
36.024130996839986,0.0059670723559339
36.05285837403045,0.0060721346228586
36.08158575122091,0.0061995356962252
36.11031312841137,0.0060830919613867
36.139040505601834,0.005884279186051
36.1677678827923,0.006255166642495
36.19649525998276,0.0065343440279424
36.225222637173225,0.0064622046690821
36.25395001436369,0.006416248527965
36.282677391554145,0.0065517311362984
36.31140476874461,0.0064267955994476
36.34013214593507,0.006379940604862
36.368859523125536,0.0070437718984188
36.397586900316,0.0068773037125259
36.426314277506464,0.0064370178463777
36.45504165469692,0.0068987530254718
36.483769031887384,0.0059542120775469
36.51249640907785,0.0061750602792227
36.54122378626831,0.006395564712847
36.569951163458775,0.0061907101658544
36.59867854064924,0.0065493521069437
36.627405917839695,0.0066638061237783
36.65613329503016,0.006415872026087
36.68486067222062,0.0064837573592184
36.713588049411086,0.0066559751954152
36.74231542660155,0.006327271961871
36.771042803792014,0.0065281391191233
36.79977018098247,0.007134785234504
36.828497558172934,0.0067744864956961
36.8572249353634,0.0065512191123222
36.88595231255386,0.0065777219997818
36.914679689744325,0.0067615945441705
36.94340706693479,0.0064395386174285
36.972134444125246,0.0070986654473346
37.00086182131571,0.0071372805001409
37.02958919850617,0.0065989387161344
37.05831657569664,0.00676096940125
37.0870439528871,0.006814336299964
37.11577133007757,0.0070118619882488
37.14449870726802,0.0080586982703813
37.17322608445848,0.0056636151002494
37.20195346164895,0.0052739621334505
37.23068083883941,0.0097240118568471
37.259408216029875,0.0061122358232085
37.28813559322034,0.0060293452030531
37.3168629704108,0.006653016323434
37.34559034760126,0.0066141396776258
37.37431772479172,0.0065755054765977
37.40304510198219,0.0067215031018093
37.43177247917265,0.0067392907974623
37.460499856363114,0.0059586314212648
37.48922723355357,0.0061361242516296
37.517954610744034,0.0075402131150703
37.5466819879345,0.0065880560978466
37.57540936512496,0.0069820790752243
37.604136742315426,0.0072439309185816
37.63286411950589,0.0066227279022891
37.661591496696346,0.0068280628218505
37.69031887388681,0.0069622973844321
37.71904625107727,0.0066288115063848
37.74777362826774,0.0075044671088803
37.7765010054582,0.0064218809406649
37.805228382648664,0.0058243860101331
37.83395575983912,0.0069034217498028
37.862683137029585,0.0068952215212511
37.89141051422005,0.0064719946608619
37.92013789141051,0.0063753560355815
37.948865268600976,0.0064917163665704
37.97759264579144,0.0061624003701729
38.006320022981896,0.0060124568340284
38.03504740017236,0.0063013890079314
38.06377477736282,0.0064327349775786
38.09250215455329,0.006084872055058
38.12122953174375,0.0058850388482205
38.149956908934215,0.0060763984667907
38.17868428612467,0.0059520764681114
38.207411663315135,0.0072774021631994
38.2361390405056,0.0067674281952949
38.26486641769606,0.0059047522123468
38.293593794886526,0.0067916731945357
38.32232117207699,0.0066822435293011
38.351048549267446,0.0065271267030191
38.37977592645791,0.0074209292527501
38.408503303648374,0.0067659170556938
38.43723068083884,0.005524908458568
38.4659580580293,0.0067656544741784
38.494685435219765,0.0066043250754546
38.52341281241022,0.0063415575303482
38.552140189600685,0.0064852611434031
38.58086756679115,0.0066373494041342
38.60959494398161,0.006511446683005
38.63832232117208,0.0065284073512121
38.66704969836254,0.0065707915017757
38.69577707555299,0.0064874948891416
38.72450445274346,0.0063187479010952
38.75323182993392,0.0064624338944633
38.78195920712439,0.0064792740633059
38.81068658431485,0.0058253076586466
38.839413961505315,0.0057906788028357
38.86814133869577,0.0068526347444342
38.896868715886235,0.0061499524820008
38.9255960930767,0.0071588675464379
38.95432347026716,0.0024369160076326
38.983050847457626,0.0071459551681976
39.01177822464809,0.0117181528996504
39.04050560183855,0.0058028024611591
39.06923297902901,0.0057935802384306
39.097960356219474,0.0071044678785177
39.12668773340994,0.0065823714350223
39.1554151106004,0.0060221270411288
39.184142487790865,0.0061278845998259
39.21286986498132,0.0063019681135587
39.241597242171785,0.0064524607020634
39.27032461936225,0.0068413017589762
39.29905199655271,0.0068359649094647
39.32777937374318,0.0059260638899686
39.35650675093364,0.0064223266252152
39.3852341281241,0.0067614070818867
39.41396150531456,0.0067216713691957
39.442688882505024,0.0064470553486001
39.47141625969549,0.0060383393623675
39.50014363688595,0.0060363135752966
39.528871014076415,0.0063561560847149
39.55759839126687,0.0062823142888138
39.586325768457336,0.0059786528863908
39.6150531456478,0.0061175511878567
39.64378052283826,0.0072711808041143
39.67250790002873,0.0090606841871047
39.70123527721919,0.0102322525971527
39.72996265440965,0.0119307744916705
39.75869003160011,0.0120224749172596
39.787417408790574,0.0117954683533506
39.81614478598104,0.0120546228272253
39.8448721631715,0.0119148766540883
39.873599540361965,0.0109615705089873
39.90232691755242,0.0092695805054395
39.931054294742886,0.0078811770189962
39.95978167193335,0.0066409395123501
39.98850904912381,0.0062127289726736
40.01723642631428,0.006447301774121
40.04596380350474,0.0061688322604926
40.0746911806952,0.006121445657716
40.10341855788566,0.0065030473387545
40.132145935076124,0.006574599193575
40.16087331226659,0.0064022856504417
40.18960068945705,0.0061066021814163
40.21832806664752,0.0047728346994444
40.24705544383797,0.0074808927683725
40.27578282102843,0.0063029903758835
40.3045101982189,0.0061804763528741
40.33323757540936,0.0062610598652473
40.36196495259983,0.0064633505263924
40.39069232979029,0.0082476842035381
40.41941970698075,0.0077039288262407
40.44814708417121,0.0084089838895945
40.476874461361675,0.0081790170024826
40.50560183855214,0.0079298278143737
40.5343292157426,0.0082834065933386
40.563056592933066,0.0075256673568574
40.59178397012352,0.0056722050869834
40.620511347313986,0.0073471326927274
40.64923872450445,0.0059281303025435
40.67796610169491,0.0059889897500688
40.70669347888538,0.0062698634329742
40.73542085607584,0.0059163131776321
40.7641482332663,0.0061592731133854
40.79287561045676,0.0061754051489501
40.821602987647225,0.0059655392551362
40.85033036483769,0.0061652695299773
40.87905774202815,0.0064423469821881
40.907785119218616,0.0060913763488
40.93651249640907,0.0061719261010985
40.965239873599536,0.0064210862864386
40.99396725079,0.0061039046446389
41.022694627980464,0.0059533539646564
41.05142200517093,0.0063176182917106
41.08014938236139,0.0062051984895349
41.10887675955185,0.0057013931147832
41.13760413674231,0.0063539578969366
41.166331513932775,0.0062239821063606
41.19505889112324,0.0056268096606238
41.2237862683137,0.0059682492143311
41.25251364550416,0.0063136368247514
41.28124102269462,0.0059962588664253
41.309968399885086,0.0059041076518412
41.33869577707555,0.0066210656893873
41.367423154266014,0.0059183608551387
41.39615053145648,0.0061514364725475
41.424877908646934,0.0068047743527591
41.4536052858374,0.0067905145717521
41.48233266302786,0.0047517335271061
41.511060040218325,0.0085908359385919
41.53978741740879,0.0071012658175264
41.56851479459925,0.0055357006462981
41.59724217178971,0.0062393240111268
41.62596954898017,0.0060471790070376
41.65469692617064,0.0058279866154926
41.6834243033611,0.0061983362779978
41.71215168055157,0.0063139912044365
41.74087905774203,0.0058011014072247
41.76960643493248,0.0057126613874722
41.79833381212295,0.006150903425274
41.82706118931341,0.0060701654367267
41.855788566503875,0.0064445805472463
41.88451594369434,0.0065464785927798
41.9132433208848,0.0060470736457537
41.94197069807526,0.0060858925919614
41.97069807526572,0.0059280776531967
41.99942545245619,0.0052953181165523
42.02815282964665,0.0072491771882266
42.056880206837114,0.0061822928035725
42.08560758402758,0.0057814306290784
42.114334961218034,0.0057810371222154
42.1430623384085,0.0057664775971649
42.17178971559896,0.0056569729454101
42.200517092789426,0.0056213053956255
42.22924446997989,0.0059332258449763
42.25797184717035,0.0056569519920605
42.28669922436081,0.0058066140345073
42.31542660155127,0.0061467716662297
42.34415397874174,0.0058048075810622
42.3728813559322,0.0057906514464879
42.401608733122664,0.0066739732974393
42.43033611031313,0.0053905743396643
42.459063487503585,0.0059845654908741
42.48779086469405,0.0065049314066056
42.51651824188451,0.0062725541129755
42.545245619074976,0.005709403286413
42.57397299626544,0.006659772239656
42.6027003734559,0.0061458344947182
42.63142775064636,0.0059433114495748
42.66015512783682,0.0062463706868102
42.68888250502729,0.0062534865125948
42.71760988221775,0.0060694082428534
42.746337259408214,0.0061464912141925
42.77506463659868,0.0065687577159995
42.803792013789135,0.0057778475570571
42.8325193909796,0.0055821095204761
42.86124676817006,0.0063605442962808
42.889974145360526,0.00621349595195
42.91870152255099,0.0056807410962202
42.94742889974145,0.0062333336421713
42.97615627693191,0.005878720638767
43.004883654122374,0.0056996513665293
43.03361103131284,0.0062758531707327
43.0623384085033,0.006291756706825
43.091065785693765,0.0055813821290871
43.11979316288423,0.0058805210344391
43.148520540074685,0.0060383151017981
43.17724791726515,0.006131457522778
43.20597529445561,0.0064562605455846
43.23470267164608,0.0057893847837336
43.26343004883654,0.0056552290747553
43.292157426027,0.0055047873719265
43.32088480321746,0.0059811107955675
43.34961218040792,0.005556671200541
43.37833955759839,0.0066127774053141
43.40706693478885,0.0060880215809305
43.435794311979315,0.0054102312210004
43.46452168916978,0.0062647588734433
43.493249066360235,0.0055388689148912
43.5219764435507,0.0045165071604844
43.55070382074116,0.0084154107520982
43.579431197931626,0.0091335823676044
43.60815857512209,0.0007302425794987
43.636885952312554,0.0058003524842444
43.66561332950301,0.0100672305776292
43.694340706693474,0.0106427989821185
43.72306808388394,0.0125393662868635
43.7517954610744,0.0140470000039287
43.780522838264865,0.014572730248263
43.80925021545533,0.0145253363854689
43.837977592645785,0.0145327420829084
43.86670496983625,0.0145913623357027
43.89543234702671,0.012521133183269
43.924159724217176,0.0115399572675642
43.95288710140764,0.0119010141051151
43.981614478598104,0.005510213448903
44.01034185578856,0.006250893147436
44.039069232979024,0.0062647427946353
44.06779661016949,0.0060700321187187
44.09652398735995,0.0060387230028844
44.125251364550415,0.0062508337198449
44.15397874174088,0.0053227788069636
44.182706118931335,0.0058099231919857
44.2114334961218,0.0054607614875278
44.24016087331226,0.0055338798882983
44.26888825050273,0.0058377923404738
44.29761562769319,0.0060208938366166
44.326343004883654,0.0060503742914018
44.35507038207411,0.0062855638275927
44.383797759264574,0.0062906326484798
44.41252513645504,0.0061234673632793
44.4412525136455,0.0062574789507043
44.469979890835965,0.0065465050271135
44.49870726802643,0.0062238847717021
44.527434645216886,0.006273517183646
44.55616202240735,0.0065544079078989
44.58488939959781,0.0055013740572361
44.61361677678828,0.0057955317871281
44.64234415397874,0.0060139466514612
44.6710715311692,0.005771858699417
44.69979890835966,0.0059174317477421
44.72852628555013,0.0064328172663632
44.75725366274059,0.0059133011056009
44.78598103993105,0.0057078510525788
44.81470841712152,0.006568417221317
44.84343579431198,0.0056394774124227
44.87216317150243,0.005689631968419
44.9008905486929,0.0063937203811719
44.92961792588336,0.0064446126123646
44.95834530307383,0.0062058309702555
44.98707268026429,0.0062405334393361
45.015800057454754,0.0064612142218902
45.04452743464521,0.0062716253067791
45.073254811835675,0.0057974990519633
45.10198218902614,0.0064630791024923
45.1307095662166,0.0061414065310028
45.159436943407066,0.0060586658759782
45.18816432059753,0.0062974208259968
45.216891697787986,0.0057241276710982
45.24561907497845,0.0058979893484819
45.27434645216891,0.0067138841483311
45.30307382935938,0.0052721442881405
45.33180120654984,0.0057822038902502
45.360528583740304,0.006378678496295
45.38925596093076,0.0060188970869657
45.417983338121225,0.0060973483442049
45.44671071531169,0.0066416268163637
45.47543809250215,0.0067229579879236
45.504165469692616,0.0062734334434988
45.53289284688308,0.0065575815276625
45.561620224073536,0.006363277769914
45.590347601264,0.0060217686136984
45.619074978454464,0.0062307748453156
45.64780235564493,0.0058625185439273
45.67652973283539,0.0057054122518375
45.705257110025855,0.0058490035116461
45.73398448721631,0.005963782336569
45.762711864406775,0.005640694846539
45.79143924159724,0.0060745889173329
45.8201666187877,0.0059438538651687
45.848893995978166,0.0058249267044324
45.87762137316863,0.0058116944446884
45.906348750359086,0.0059156906885649
45.93507612754955,0.0059668116926969
45.963803504740014,0.0058830638273721
45.99253088193048,0.0057947559116532
46.02125825912094,0.0058139468129687
46.049985636311405,0.0057990866767915
46.07871301350186,0.005853467117021
46.107440390692325,0.0056759393905248
46.13616776788279,0.0054848995627175
46.16489514507325,0.0055721736687412
46.19362252226371,0.0056029873244214
46.22234989945418,0.0055338800101286
46.25107727664464,0.0054591183319262
46.2798046538351,0.0052744446129702
46.30853203102557,0.0053814616308856
46.33725940821603,0.0056145524740333
46.36598678540649,0.0055163970711027
46.394714162596955,0.0056044297085296
46.42344153978741,0.0057666329738449
46.452168916977875,0.0058037884338513
46.48089629416834,0.0059396788575584
46.5096236713588,0.0058371595673655
46.538351048549266,0.005548469541561
46.56707842573973,0.0056950443942199
46.59580580293019,0.0053177198775524
46.62453318012065,0.0059573822594279
46.653260557311114,0.0056887416665591
46.68198793450158,0.0056342455326582
46.71071531169204,0.0055995550507469
46.739442688882505,0.0056959828843033
46.76817006607296,0.0050425218918806
46.796897443263425,0.0055811458980938
46.82562482045389,0.0056946191790721
46.85435219764435,0.0062767879399956
46.88307957483482,0.0057776409919907
46.91180695202528,0.0057208453374063
46.94053432921574,0.0057552041504721
46.9692617064062,0.0058239637880613
46.997989083596664,0.0058323549656192
47.02671646078713,0.0061717051274788
47.05544383797759,0.0054815517641695
47.08417121516805,0.0061866348177734
47.11289859235851,0.0062106487448809
47.141625969548976,0.0059083902244955
47.17035334673944,0.0061062435306515
47.1990807239299,0.0060974759726527
47.22780810112037,0.0058914704696725
47.25653547831082,0.0058148966079494
47.28526285550129,0.0057458493291989
47.31399023269175,0.0057968267169874
47.342717609882214,0.0053999106883155
47.37144498707268,0.0056583733017763
47.40017236426314,0.0060690831179777
47.4288997414536,0.004764992806611
47.45762711864406,0.0055124056270506
47.486354495834526,0.0056832961413709
47.51508187302499,0.0059289991167821
47.54380925021545,0.0058953936640799
47.57253662740592,0.0056401551825166
47.60126400459637,0.0063347378286351
47.62999138178684,0.0063964785338751
47.6587187589773,0.0038419730095875
47.687446136167765,0.0109619570335742
47.71617351335823,0.010501198587994
47.74490089054869,0.0100915477592799
47.77362826773915,0.0119092283081481
47.80235564492961,0.0131186697510705
47.83108302212008,0.0153371073558463
47.85981039931054,0.0155821178906642
47.888537776501,0.0151257052851919
47.91726515369147,0.0147837056539898
47.94599253088192,0.0141549583546273
47.97471990807239,0.0125484401850181
48.00344728526285,0.0119328686212227
48.032174662453315,0.0107381063374325
48.06090203964378,0.006038083845528
48.08962941683424,0.0051318741852532
48.1183567940247,0.005450738018454
48.14708417121516,0.0055624056318708
48.175811548405626,0.0056411323060739
48.20453892559609,0.0057604898650351
48.233266302786554,0.0057201873671131
48.26199367997702,0.0053999416182595
48.290721057167474,0.0053550284092696
48.31944843435794,0.0056310891001025
48.3481758115484,0.0055190656156379
48.376903188738865,0.0050180823776806
48.40563056592933,0.0052225520771149
48.43435794311979,0.0057269339251212
48.46308532031025,0.005269879259816
48.49181269750071,0.0054207165351073
48.520540074691176,0.005508399870195
48.54926745188164,0.0054344104412366
48.577994829072104,0.0055795035564379
48.60672220626257,0.0054072625885841
48.635449583453024,0.0051840593171342
48.66417696064349,0.0052774360555467
48.69290433783395,0.0054042885361359
48.721631715024415,0.0052407728286248
48.75035909221488,0.0053104732195122
48.77908646940534,0.0056033153681572
48.8078138465958,0.0056934150088539
48.83654122378626,0.0051743956272591
48.86526860097673,0.0054838934334561
48.89399597816719,0.0056475100363781
48.922723355357654,0.0049670517853678
48.95145073254812,0.0056723469349048
48.980178109738574,0.0055557927536972
49.00890548692904,0.0050169106469635
49.0376328641195,0.0052471751693194
49.066360241309965,0.0053916545350521
49.09508761850043,0.0056421508637046
49.12381499569089,0.0057055513264193
49.15254237288135,0.0055122544468147
49.18126975007181,0.0053581004537663
49.20999712726228,0.0055183930886034
49.23872450445274,0.00549934261336
49.2674518816432,0.0052904413955283
49.29617925883367,0.0051776922646629
49.32490663602413,0.0052406126638381
49.35363401321459,0.005176355118058
49.38236139040505,0.0051595901745906
49.411088767595515,0.0053793796735898
49.43981614478598,0.0053335399986453
49.46854352197644,0.0053904034533612
49.4972708991669,0.0055737297283501
49.52599827635736,0.0054523511722092
49.55472565354783,0.0055605654220648
49.58345303073829,0.0056093158235104
49.612180407928754,0.0053845300494901
49.64090778511922,0.005482517598752
49.669635162309675,0.005125759044767
49.69836253950014,0.005032711907011
49.7270899166906,0.0049399086453291
49.755817293881066,0.004978344054626
49.78454467107153,0.0036256706188957
49.81327204826199,0.0073067702735526
49.84199942545245,0.0065081010200411
49.87072680264291,0.0047832987951683
49.89945417983338,0.0053217790499808
49.92818155702384,0.0049043566229774
49.956908934214304,0.0057771222334292
49.98563631140477,0.0054902566081122
50.014363688595225,0.0051090228136975
50.04309106578569,0.005197212581572
50.07181844297615,0.005209222991842
50.100545820166616,0.0053002395553559
50.12927319735708,0.005211870644357
50.15800057454754,0.0049429538038979
50.186727951738,0.0062490752186813
50.21545532892846,0.0051386492909679
50.24418270611893,0.0044316802450765
50.27291008330939,0.0056458521978161
50.301637460499855,0.0052793048767766
50.33036483769032,0.0050720559361244
50.359092214880775,0.0052878835445683
50.38781959207124,0.0054081581174549
50.4165469692617,0.005325902639997
50.445274346452166,0.005164667544987
50.47400172364263,0.0052155011599234
50.50272910083309,0.0051340163429744
50.53145647802355,0.0052029790763297
50.560183855214014,0.0051478801392652
50.58891123240448,0.0049443552029018
50.61763860959494,0.0051666434582886
50.646365986785405,0.0054344582256779
50.67509336397587,0.0054039860635203
50.703820741166325,0.0054521321036359
50.73254811835679,0.005714002797455
50.76127549554725,0.0057917713787982
50.79000287273771,0.0055560794736214
50.81873024992818,0.0054969350513368
50.84745762711864,0.0060133739809047
50.8761850043091,0.0052029917132031
50.90491238149957,0.0056860337385448
50.93363975869003,0.0056959272095282
50.96236713588049,0.0057081601240206
50.991094513070955,0.0059909248682531
51.01982189026142,0.0058987667859207
51.048549267451875,0.0055213521579892
51.07727664464234,0.0056311566788206
51.1060040218328,0.0056530562598979
51.134731399023266,0.0054960747494452
51.16345877621373,0.0060134875676656
51.192186153404194,0.0056887541761015
51.22091353059465,0.0051566408366822
51.249640907785114,0.0059027656052847
51.27836828497558,0.0059193923931065
51.30709566216604,0.0056813486138924
51.335823039356505,0.0058762584985774
51.36455041654697,0.0060238385318337
51.393277793737425,0.0057629315900722
51.42200517092789,0.0054054706066115
51.45073254811835,0.0056217566047675
51.47945992530882,0.0056915406611347
51.50818730249928,0.0050722521884334
51.536914679689744,0.0053555260600579
51.5656420568802,0.0054559350364453
51.594369434070664,0.0053268429924136
51.62309681126113,0.0055380577638309
51.65182418845159,0.0053105213924789
51.680551565642055,0.0052183351741824
51.70927894283252,0.0062561944273161
51.738006320022976,0.0072733677170185
51.76673369721344,0.0075977146466448
51.7954610744039,0.0091185636489828
51.82418845159437,0.0102423572008219
51.85291582878483,0.0105260145212059
51.881643205975294,0.0137126023344939
51.91037058316575,0.0125176966481877
51.939097960356214,0.0116099524049343
51.96782533754668,0.0116450472108287
51.99655271473714,0.0104007604876922
52.025280091927605,0.0108263696332946
52.05400746911807,0.0099544430425313
52.082734846308526,0.0058469535798158
52.11146222349899,0.0063001343257337
52.14018960068945,0.0057930774102588
52.16891697787992,0.0055252263289844
52.19764435507038,0.0056760204651404
52.22637173226085,0.0055379675045125
52.2550991094513,0.0056089853982181
52.283826486641765,0.0056960798303384
52.31255386383223,0.0054527169116714
52.34128124102269,0.0054757131579579
52.37000861821315,0.0054923093147834
52.39873599540362,0.005337178981254
52.42746337259408,0.005328929323702
52.45619074978454,0.0053934706174639
52.484918126975,0.0047412335841616
52.51364550416547,0.0052488424002966
52.54237288135593,0.0053518362184914
52.571100258546394,0.0050690830306069
52.59982763573685,0.0052257560103416
52.628555012927315,0.0058446225008098
52.65728239011778,0.005469509835453
52.68600976730824,0.0051001529667838
52.714737144498706,0.0059548469388179
52.74346452168917,0.0055739870688609
52.772191898879626,0.0050389349885181
52.80091927607009,0.0055995899081203
52.82964665326055,0.0053775312174053
52.85837403045102,0.0053347598295691
52.88710140764148,0.0055241384108926
52.915828784831945,0.0053593184529014
52.9445561620224,0.0053364716564433
52.973283539212865,0.0053871212451081
53.00201091640333,0.0051991476332638
53.03073829359379,0.0053825691673808
53.059465670784256,0.0053838899961876
53.08819304797471,0.0047753681657274
53.116920425165176,0.00578391053319
53.14564780235564,0.0054682116016223
53.174375179546104,0.0051261493876255
53.20310255673657,0.0053958820160678
53.23182993392703,0.0056961819707331
53.26055731111749,0.0056614153341875
53.28928468830795,0.0054115904783946
53.318012065498415,0.005332177068267
53.34673944268888,0.0052333069089601
53.37546681987934,0.0050474885982896
53.404194197069806,0.0052400574480214
53.43292157426026,0.005215011972489
53.46164895145073,0.0047950011080713
53.49037632864119,0.0048027182118816
53.519103705831654,0.0047875651028203
53.54783108302212,0.0049303307165598
53.57655846021258,0.0052855636351221
53.60528583740304,0.0053993762498136
53.6340132145935,0.0048661068571782
53.662740591783965,0.0048733597396544
53.69146796897443,0.0057522769502415
53.72019534616489,0.0054035511116797
53.74892272335536,0.0053826927584714
53.77765010054581,0.005840147573256
53.80637747773628,0.0056203456387404
53.83510485492674,0.005712852161207
53.8638322321172,0.0056246249395627
53.89255960930767,0.0053181523053948
53.92128698649813,0.0053752780354485
53.95001436368859,0.0053813694491738
53.97874174087905,0.0051901462911734
54.007469118069515,0.0051850454699819
54.03619649525998,0.0054175516600377
54.06492387245044,0.0054186980412634
54.09365124964091,0.0048452232245252
54.12237862683136,0.0053717869633236
54.15110600402183,0.005159343389862
54.17983338121229,0.0052073388461082
54.208560758402754,0.0054753834770019
54.23728813559322,0.0052147960301283
54.26601551278368,0.0053692415848626
54.29474288997414,0.0057710121992498
54.3234702671646,0.0054382099721834
54.352197644355066,0.0052862145151465
54.38092502154553,0.0053207986994644
54.40965239873599,0.0054648216609816
54.43837977592646,0.005426001099322
54.46710715311691,0.0053736958061244
54.49583453030738,0.0054174617654835
54.52456190749784,0.0049887189735937
54.553289284688304,0.0054005462444757
54.58201666187877,0.0054774737070396
54.61074403906923,0.005262975883263
54.63947141625969,0.0053121091655278
54.66819879345015,0.0053639790460876
54.696926170640616,0.0049550232397178
54.72565354783108,0.0047769013991688
54.75438092502154,0.0060125820220998
54.78310830221201,0.0055957233191582
54.81183567940246,0.0056703709776477
54.84056305659293,0.0056749854722461
54.86929043378339,0.0055550563235963
54.898017810973855,0.0055509299816148
54.92674518816432,0.0055401427022678
54.95547256535478,0.0054461636417372
54.98419994254524,0.0056771302548382
55.0129273197357,0.0055186230765148
55.041654696926166,0.0056197311068682
55.07038207411663,0.0055143759291417
55.09910945130709,0.0054194431109298
55.12783682849756,0.0054922767786337
55.156564205688014,0.0052811677532558
55.18529158287848,0.0052824450104396
55.21401896006894,0.0052111702705532
55.242746337259405,0.0050352492677913
55.27147371444987,0.0047177776673799
55.30020109164033,0.0047147996738268
55.32892846883079,0.0045261473075362
55.35765584602125,0.0049279575570254
55.38638322321171,0.0052519757893081
55.41511060040218,0.0051992130546158
55.44383797759264,0.0050778576434686
55.47256535478311,0.005193650088101
55.50129273197357,0.0053819069427036
55.53002010916403,0.0055807085349116
55.55874748635449,0.0056899031840897
55.587474863544955,0.005095217179342
55.61620224073542,0.0055112727297235
55.64492961792588,0.0053118247013013
55.67365699511634,0.0049975165877825
55.7023843723068,0.0053297475033023
55.731111749497266,0.0034804948444162
55.75983912668773,0.0115696073703606
55.788566503878194,0.0115290674906054
55.81729388106866,0.0072115467500312
55.846021258259114,0.0148261055756992
55.87474863544958,0.0175374178569834
55.90347601264004,0.0144792084984087
55.932203389830505,0.0151115951470606
55.96093076702097,0.0165965440791522
55.98965814421143,0.014194121565101
56.01838552140189,0.0143185697551309
56.04711289859235,0.0081874705326518
56.07584027578282,0.0106336715996649
56.10456765297328,0.0068821628132851
56.133295030163744,0.0044097699779883
56.16202240735421,0.004973542019177
56.190749784544664,0.0046187551372125
56.21947716173513,0.0047034484539941
56.24820453892559,0.0048586941750033
56.276931916116055,0.0047360836903741
56.30565929330652,0.0050471778517509
56.33438667049698,0.005125559739979
56.36311404768744,0.0053080648964029
56.3918414248779,0.005166318627431
56.42056880206837,0.0052266993183348
56.44929617925883,0.0056115762563155
56.478023556449294,0.0053579648291451
56.50675093363976,0.0052831393219305
56.535478310830214,0.005442348300019
56.56420568802068,0.0053939175361709
56.59293306521114,0.0053449638402728
56.621660442401605,0.0057119264420441
56.65038781959207,0.0055315301195794
56.67911519678253,0.0059032773819208
56.70784257397299,0.0057466359615947
56.73656995116345,0.005956979387397
56.76529732835392,0.0064646860072644
56.79402470554438,0.0064374684680196
56.82275208273485,0.0063135693715798
56.85147945992531,0.0064752038422228
56.880206837115765,0.0063589040588175
56.90893421430623,0.0059899836353288
56.93766159149669,0.0063424725099272
56.96638896868715,0.0062137460099218
56.99511634587762,0.0056531016071181
57.02384372306808,0.0055959617071152
57.05257110025854,0.0060383863360328
57.081298477449,0.0056062347664436
57.11002585463947,0.0059470969984504
57.13875323182993,0.0059214713122182
57.167480609020394,0.0055513236890757
57.19620798621086,0.005992801348527
57.224935363401315,0.0060823976569733
57.25366274059178,0.0057502299552582
57.28239011778224,0.006462234738048
57.311117494972706,0.0060999717280316
57.33984487216317,0.0057294569719803
57.36857224935363,0.0062046589699855
57.39729962654409,0.0064802508005308
57.42602700373455,0.0054228533867201
57.45475438092502,0.0062726876863435
57.48348175811548,0.0065135219601393
57.512209135305945,0.0052668569245521
57.54093651249641,0.0057535643079954
57.569663889686865,0.0058130476774784
57.59839126687733,0.0058917917615678
57.62711864406779,0.0059511018327917
57.655846021258256,0.0059415341294328
57.68457339844872,0.0057654236956426
57.71330077563918,0.005764530758156
57.74202815282964,0.0061340121670353
57.770755530020104,0.0058707640378809
57.79948290721057,0.0058492867057709
57.82821028440103,0.005834887330608
57.856937661591495,0.005515850234527
57.88566503878196,0.0053378157713436
57.914392415972415,0.0055629417588933
57.94311979316288,0.0054348750321535
57.97184717035334,0.0054917471062912
58.000574547543806,0.0055217485337816
58.02930192473427,0.0054505102830738
58.05802930192473,0.0057212805620199
58.08675667911519,0.0058828772738768
58.115484056305654,0.0054806917164264
58.14421143349612,0.0063729591691214
58.17293881068658,0.0058265551928841
58.201666187877045,0.0059551021862543
58.23039356506751,0.0059922204646846
58.259120942257965,0.0058294065658472
58.28784831944843,0.0058110354988379
58.31657569663889,0.0055619169497781
58.34530307382936,0.0054633075685362
58.37403045101982,0.0057549178924623
58.40275782821029,0.0056833315459862
58.43148520540074,0.0054451822104861
58.4602125825912,0.0055957874893844
58.48893995978167,0.0055650321949933
58.51766733697213,0.005828163208755
58.546394714162595,0.0060375402881908
58.57512209135306,0.0058702977520259
58.603849468543515,0.0059885454329747
58.63257684573398,0.0058901213329986
58.66130422292444,0.0057943391728367
58.69003160011491,0.0059036298336842
58.71875897730537,0.0057688534797946
58.747486354495834,0.0054637404534115
58.77621373168629,0.0054877490205468
58.804941108876754,0.005563178547204
58.83366848606722,0.0056627233865648
58.86239586325768,0.0057495663859341
58.891123240448145,0.0057040131602673
58.9198506176386,0.0056408018527674
58.948577994829066,0.0057895048978952
58.97730537201953,0.0059614922435493
59.00603274920999,0.0052733752278893
59.03476012640046,0.0054150790847487
59.06348750359092,0.0059490251783355
59.09221488078138,0.0056116106818369
59.12094225797184,0.0056952085298053
59.149669635162304,0.0061917592618193
59.17839701235277,0.0055896262644027
59.20712438954323,0.0044884105677929
59.235851766733695,0.0074440972901176
59.26457914392415,0.0062487385067888
59.293306521114616,0.0059958257034632
59.32203389830508,0.006226516290223
59.35076127549554,0.0061326658951876
59.37948865268601,0.0063430580779457
59.40821602987647,0.0065834464907678
59.43694340706693,0.0058651848823393
59.46567078425739,0.0067632101069737
59.494398161447855,0.0066296607440299
59.52312553863832,0.0063584008995105
59.55185291582878,0.0065699164487031
59.580580293019246,0.0065010896695059
59.6093076702097,0.0063161529038411
59.638035047400166,0.0062391920811696
59.66676242459063,0.0062091421060783
59.69548980178109,0.0065035380942185
59.72421717897156,0.005878277233053
59.75294455616202,0.0068758054866847
59.78167193335248,0.0075864362078937
59.81039931054294,0.0089662106175284
59.839126687733405,0.0100086713563866
59.86785406492387,0.0147017856471226
59.89658144211433,0.013240350488654
59.9253088193048,0.0137342188780925
59.95403619649525,0.013103696420133
59.98276357368571,0.0127708873604588
60.01149095087618,0.011989613121446
60.04021832806664,0.0107964750993857
60.06894570525711,0.0090318433538936
60.09767308244757,0.0067045998054519
60.12640045963803,0.0060884390355579
60.15512783682849,0.0065627442106662
60.183855214018955,0.0058956715037267
60.21258259120942,0.0060218351139497
60.24130996839988,0.0055787895951724
60.270037345590346,0.0060529852130394
60.2987647227808,0.0061879565449078
60.327492099971266,0.0058693522525137
60.35621947716173,0.006169626802373
60.384946854352194,0.0059272349207696
60.41367423154266,0.0057607661813207
60.44240160873312,0.0060394298559474
60.47112898592358,0.0059530034336651
60.49985636311404,0.0051109526610632
60.528583740304505,0.0057843798984952
60.55731111749497,0.0056641462863788
60.58603849468543,0.0056332010192462
60.614765871875896,0.0059305146270917
60.64349324906635,0.0056747182933792
60.672220626256816,0.0055995520087023
60.70094800344728,0.0064173347566505
60.729675380637744,0.0059695531617641
60.75840275782821,0.0058885146335896
60.78713013501867,0.0060001906664638
60.81585751220913,0.0058854634133506
60.84458488939959,0.0056074507536538
60.873312266590055,0.0058850563614676
60.90203964378052,0.0058738952312504
60.93076702097098,0.005176806507789
60.959494398161446,0.0063395124012223
60.9882217753519,0.0064274094958631
61.01694915254237,0.0058224208864359
61.04567652973283,0.0063021641365007
61.074403906923294,0.0062063240006814
61.10313128411376,0.0060281097085355
61.13185866130422,0.006107684438232
61.16058603849468,0.0060192448154956
61.18931341568514,0.0052813248873123
61.218040792875605,0.0057919131762469
61.24676817006607,0.0059215308390777
61.27549554725653,0.0056486034438784
61.304222924447,0.0060782596605124
61.33295030163745,0.0059634863685415
61.36167767882792,0.005813083107051
61.39040505601838,0.0062388191291687
61.41913243320885,0.0060325787665301
61.44785981039931,0.0061073060158898
61.47658718758977,0.0065859208143672
61.50531456478023,0.0055218811158761
61.53404194197069,0.0057724599588894
61.56276931916115,0.0063759404975886
61.59149669635162,0.0061586690950076
61.62022407354208,0.0058514172139594
61.64895145073255,0.0067613514132675
61.677678827923,0.0065111631989767
61.70640620511347,0.0063044589261532
61.73513358230393,0.0064214516465773
61.763860959494394,0.0063366344986582
61.79258833668486,0.0058571292226452
61.82131571387532,0.0059976593565671
61.85004309106578,0.0057977339029851
61.87877046825624,0.0058467806347802
61.907497845446706,0.0063011997049747
61.93622522263717,0.0060998990614407
61.96495259982763,0.0058894670027813
61.9936799770181,0.0062631161742978
62.02240735420855,0.0066438471236942
62.05113473139902,0.0064438881901787
62.07986210858948,0.0059426364515292
62.108589485779945,0.0062778854100494
62.13731686297041,0.0055373969619466
62.16604424016087,0.0065800685748094
62.19477161735133,0.0064749331044359
62.22349899454179,0.0061318620317559
62.252226371732256,0.0061851345546593
62.28095374892272,0.0062107158777909
62.30968112611318,0.005870741386379
62.33840850330365,0.0062891452888994
62.367135880494104,0.0065083854525299
62.39586325768457,0.0061397201883494
62.42459063487503,0.0060664629698783
62.453318012065495,0.0065821796543819
62.48204538925596,0.0058929192396119
62.51077276644642,0.0058067932143701
62.53950014363688,0.0069197200593684
62.56822752082734,0.0064018352315233
62.596954898017806,0.004822356068687
62.62568227520827,0.0072126136447106
62.65440965239873,0.006471378247388
62.6831370295892,0.0060528076146526
62.711864406779654,0.0064854941087089
62.74059178397012,0.006705059550092
62.76931916116058,0.006020713173136
62.798046538351045,0.0062687908438209
62.82677391554151,0.006180646794888
62.85550129273197,0.0061575877174999
62.88422866992243,0.0066811772318826
62.91295604711289,0.0064118423997446
62.94168342430336,0.0065469882551535
62.97041080149382,0.0067649319435659
62.99913817868429,0.0066232655984889
63.02786555587475,0.0063875949023593
63.0565929330652,0.0070959836446947
63.08532031025567,0.0079283096347077
63.11404768744613,0.0057795645039095
63.142775064636595,0.0065508022444807
63.17150244182706,0.0069569914190507
63.20022981901752,0.0064056011345509
63.22895719620798,0.0066282729941948
63.25768457339844,0.0067884958053875
63.28641195058891,0.0061759308237239
63.31513932777937,0.0061722720109395
63.343866704969834,0.0065138458402258
63.3725940821603,0.0062365523295671
63.401321459350754,0.0062000290097277
63.43004883654122,0.0063425295011592
63.45877621373168,0.0058007779308651
63.487503590922145,0.0062086151704699
63.51623096811261,0.0064917041310083
63.54495834530307,0.0060619904757656
63.57368572249353,0.0058559742256475
63.60241309968399,0.0064415290121933
63.63114047687446,0.0063152143664925
63.65986785406492,0.0060769497498655
63.688595231255384,0.006229635109176
63.71732260844585,0.0062760396343126
63.746049985636304,0.0054923611614425
63.77477736282677,0.0077330080605848
63.80350474001723,0.0073462157061663
63.832232117207695,0.0097902560065891
63.86095949439816,0.0114601258719367
63.88968687158862,0.0133324957048269
63.91841424877908,0.0144045066480874
63.94714162596954,0.0141562620104502
63.97586900316001,0.0142478194588918
64.00459638035046,0.0133930849724462
64.03332375754093,0.0128957731739378
64.06205113473139,0.0127864325112246
64.09077851192185,0.0075882928407213
64.11950588911232,0.0073136208048021
64.14823326630278,0.0067282982500067
64.17696064349325,0.0056447963267636
64.20568802068371,0.005815714006857
64.23441539787417,0.0060185138371028
64.26314277506464,0.0057898503453908
64.2918701522551,0.0060261656153047
64.32059752944556,0.0061445821456218
64.34932490663601,0.0057318554312137
64.37805228382648,0.0059966502578816
64.40677966101694,0.0063233754518211
64.4355070382074,0.0060201777197072
64.46423441539787,0.006131222390927
64.49296179258833,0.0064583766522521
64.5216891697788,0.0059825087082061
64.55041654696926,0.0071772683443178
64.57914392415972,0.0069347738399483
64.60787130135019,0.0067278331188419
64.63659867854065,0.0066801193741128
64.66532605573111,0.0064226734645676
64.69405343292156,0.006041339154686
64.72278081011203,0.0069589426140648
64.75150818730249,0.0067882677528245
64.78023556449295,0.0062477616849099
64.80896294168342,0.0060122161853958
64.83769031887388,0.0061416603135318
64.86641769606435,0.0062439669261535
64.89514507325481,0.0060909296681823
64.92387245044527,0.0059588468493669
64.95259982763574,0.0060075241409861
64.9813272048262,0.0062126340313625
65.01005458201665,0.0062930001994033
65.03878195920711,0.0058972203507757
65.06750933639758,0.0053649410376366
65.09623671358804,0.006684917801994
65.1249640907785,0.005976031666239
65.15369146796897,0.0055648730134904
65.18241884515943,0.0063503020086558
65.2111462223499,0.005886660739941
65.23987359954036,0.0058825183778437
65.26860097673082,0.0061932486756595
65.29732835392129,0.0059806918420319
65.32605573111175,0.0062297935353945
65.3547831083022,0.0064673151361903
65.38351048549266,0.0070022194781985
65.41223786268313,0.0051771313975918
65.44096523987359,0.006312573514536
65.46969261706406,0.0061686170569106
65.49841999425452,0.0060411076792064
65.52714737144498,0.0062329137101483
65.55587474863545,0.0061918667533438
65.58460212582591,0.0059604706945643
65.61332950301637,0.0063566035916837
65.64205688020684,0.0059682534271291
65.6707842573973,0.0055133077137456
65.69951163458775,0.0060763878645103
65.72823901177821,0.0063316595614432
65.75696638896868,0.0052742311707071
65.78569376615914,0.0057433361307212
65.8144211433496,0.0066810314276969
65.84314852054007,0.004552481508476
65.87187589773053,0.0057463026441434
65.900603274921,0.005979599450966
65.92933065211146,0.0054681769694441
65.95805802930192,0.0055613624055655
65.98678540649239,0.0058309231310554
66.01551278368285,0.0057973184511174
66.0442401608733,0.0059658428341259
66.07296753806376,0.0059871587415599
66.10169491525423,0.0057241605988452
66.13042229244469,0.0057994877231497
66.15914966963516,0.0063267670369663
66.18787704682562,0.0062681229471198
66.21660442401608,0.0057273287100368
66.24533180120655,0.0059229109506212
66.27405917839701,0.0063348697086091
66.30278655558747,0.0058314823335287
66.33151393277794,0.0062825128667302
66.3602413099684,0.0057250443178654
66.38896868715885,0.0055215868302818
66.41769606434931,0.0061304649444369
66.44642344153978,0.005530391728272
66.47515081873024,0.0053287322510272
66.5038781959207,0.00740271887544
66.53260557311117,0.0066464209516595
66.56133295030163,0.0059160232943114
66.5900603274921,0.0063456139187137
66.61878770468256,0.0063556600991855
66.64751508187302,0.0062933624710819
66.67624245906349,0.0061437173897068
66.70496983625395,0.0058655029186486
66.7336972134444,0.00572734585768
66.76242459063486,0.0059294761015221
66.79115196782533,0.0061337778240618
66.81987934501579,0.0058689200245699
66.84860672220626,0.0056723278384599
66.87733409939672,0.0061128340058624
66.90606147658718,0.0058237791266226
66.93478885377765,0.0061935638938472
66.96351623096811,0.0061130614994098
66.99224360815857,0.0054900290803651
67.02097098534904,0.0058844850203216
67.0496983625395,0.0063150037362461
67.07842573972995,0.0058304821113417
67.10715311692041,0.0058937596328219
67.13588049411088,0.0062826185319948
67.16460787130134,0.0056079759474045
67.1933352484918,0.0058146255385229
67.22206262568227,0.0065760155356221
67.25079000287273,0.0056929805421488
67.2795173800632,0.0055536014737205
67.30824475725366,0.0063499967077609
67.33697213444412,0.006074042424494
67.36569951163459,0.0047495983250193
67.39442688882505,0.0063576914927668
67.4231542660155,0.0065417346004971
67.45188164320597,0.0054494028901867
67.48060902039643,0.0058806025048602
67.50933639758689,0.0059023664465617
67.53806377477736,0.0055680955241561
67.56679115196782,0.0061260788362735
67.59551852915828,0.0063659278259661
67.62424590634875,0.0058092838378932
67.65297328353921,0.0061388102814033
67.68170066072967,0.0057138337175077
67.71042803792014,0.0059900423696664
67.7391554151106,0.0066987058627765
67.76788279230105,0.0058316330613674
67.79661016949152,0.0051165485289869
67.82533754668198,0.0072830783259223
67.85406492387244,0.0075486964308742
67.8827923010629,0.0080446225917615
67.91151967825337,0.0085977300563748
67.94024705544383,0.0085645633770316
67.9689744326343,0.0094027082173236
67.99770180982476,0.0098573309601664
68.02642918701522,0.0098419661461042
68.05515656420569,0.007529918929161
68.08388394139615,0.008653130766309
68.1126113185866,0.0081951910621423
68.14133869577707,0.0075727139318253
68.17006607296753,0.0071242103779964
68.19879345015799,0.0078207951556114
68.22752082734846,0.0055546473587991
68.25624820453892,0.0059237139518708
68.28497558172938,0.006462289287842
68.31370295891985,0.0058158180568562
68.34243033611031,0.0057544826593805
68.37115771330078,0.005930739133045
68.39988509049124,0.0058909185195971
68.4286124676817,0.0058589724256086
68.45733984487215,0.0058666645481349
68.48606722206262,0.005823271026178
68.51479459925308,0.0057623999534632
68.54352197644354,0.0057411511592783
68.572249353634,0.0057101956850893
68.60097673082447,0.0053068461142886
68.62970410801493,0.0057130900245724
68.6584314852054,0.0059547624126249
68.68715886239586,0.005685575562237
68.71588623958633,0.0058934346226565
68.74461361677679,0.0058170674610678
68.77334099396725,0.0057020239245453
68.8020683711577,0.0055079100861629
68.83079574834817,0.0054924957539136
68.85952312553863,0.0055701174809868
68.8882505027291,0.0057061237969038
68.91697787991956,0.0055288959929494
68.94570525711002,0.0057248325307916
68.97443263430048,0.0054374385939521
69.00316001149095,0.0056830849286799
69.03188738868141,0.0056482950129035
69.06061476587188,0.0057763341663236
69.08934214306234,0.0057438302272679
69.1180695202528,0.0056498769857458
69.14679689744325,0.0057139225639667
69.17552427463372,0.0060463187862213
69.20425165182418,0.0060087498830607
69.23297902901464,0.0057919336450443
69.2617064062051,0.0059885976653488
69.29043378339557,0.0055775906110959
69.31916116058603,0.0057501490201454
69.3478885377765,0.0058995354310449
69.37661591496696,0.0056254788102106
69.40534329215743,0.0053650107009246
69.43407066934789,0.0059472712463308
69.46279804653835,0.0056511806328858
69.4915254237288,0.0056669536835622
69.52025280091927,0.0059050183327083
69.54898017810973,0.0058854278470319
69.5777075553002,0.0056466869501491
69.60643493249066,0.0057741285838023
69.63516230968112,0.0058310333394223
69.66388968687158,0.0057226490940692
69.69261706406205,0.0059047761795345
69.72134444125251,0.0058764300226139
69.75007181844298,0.0056246286192023
69.77879919563344,0.0056219951623353
69.8075265728239,0.0062748701981974
69.83625395001435,0.0053702603673341
69.86498132720482,0.0056360983698001
69.89370870439528,0.0057154753692331
69.92243608158574,0.005452233305608
69.95116345877621,0.005877173561579
69.97989083596667,0.005665811480196
70.00861821315713,0.0056016885187205
70.0373455903476,0.0058012864567943
70.06607296753806,0.0056749118817185
70.09480034472853,0.0053660340856045
70.12352772191899,0.0059922028710216
70.15225509910945,0.0056626267908209
70.1809824762999,0.005847269933976
70.20970985349037,0.0057507219414265
70.23843723068083,0.0056608986504638
70.2671646078713,0.0056865659630555
70.29589198506176,0.0056940782410288
70.32461936225222,0.005601615976585
70.35334673944269,0.005579325576499
70.38207411663315,0.0057784028544705
70.41080149382361,0.0058959957383914
70.43952887101408,0.0056265680414951
70.46825624820454,0.0056517406719229
70.496983625395,0.0060519536465081
70.52571100258545,0.0060197239501514
70.55443837977592,0.0056891644340636
70.58316575696638,0.0057581169817941
70.61189313415684,0.0055586405571578
70.64062051134731,0.0058011855503257
70.66934788853777,0.0060042269947863
70.69807526572824,0.005855151312445
70.7268026429187,0.0059584834416808
70.75553002010916,0.0059010126291081
70.78425739729963,0.0058083226906799
70.81298477449009,0.0059168833442167
70.84171215168054,0.0059685134206462
70.870439528871,0.0057733269946807
70.89916690606147,0.0058432190096164
70.92789428325193,0.0059836831172526
70.9566216604424,0.0059500008579179
70.98534903763286,0.0058668965553107
71.01407641482332,0.0059979529952502
71.04280379201379,0.0058023438580747
71.07153116920425,0.0056796800183519
71.10025854639471,0.0057585052195711
71.12898592358518,0.0055942261213876
71.15771330077564,0.00509483235387
71.18644067796609,0.0057421287346527
71.21516805515655,0.0053900571757439
71.24389543234702,0.004966575121748
71.27262280953748,0.0053233450579348
71.30135018672794,0.0054375851064228
71.33007756391841,0.005134511842675
71.35880494110887,0.0056669962664157
71.38753231829934,0.0058707032496789
71.4162596954898,0.0056656713087553
71.44498707268026,0.0057732979765711
71.47371444987073,0.0060105782224737
71.50244182706119,0.0059812417881417
71.53116920425164,0.0059175742581534
71.5598965814421,0.006111974982807
71.58862395863257,0.00621946382181
71.61735133582303,0.0055243383215995
71.6460787130135,0.0059937795560595
71.67480609020396,0.0054688564365036
71.70353346739442,0.0055693098410593
71.73226084458489,0.0056857015817297
71.76098822177535,0.0054301767050607
71.78971559896581,0.0059633516476212
71.81844297615628,0.0078671138771747
71.84717035334674,0.010781005480392
71.87589773053719,0.0120520375426535
71.90462510772765,0.0133885862402764
71.93335248491812,0.013874845469235
71.96207986210858,0.0137546995828129
71.99080723929904,0.0134714679821592
72.01953461648951,0.0137449677221842
72.04826199367997,0.0135938864953505
72.07698937087044,0.0098482693206731
72.1057167480609,0.0094651470720659
72.13444412525136,0.0062153012054738
72.16317150244183,0.0035679913324013
72.19189887963229,0.0061654576864195
72.22062625682274,0.0063708512221073
72.2493536340132,0.0054961999996215
72.27808101120367,0.0055362656787597
72.30680838839413,0.0050315093394544
72.3355357655846,0.0055137631974597
72.36426314277506,0.0072181718507126
72.39299051996552,0.0040881270132874
72.42171789715599,0.0054814185686872
72.45044527434645,0.0060952189173754
72.47917265153691,0.005537934421724
72.50790002872738,0.0059739502414233
72.53662740591784,0.0060318472030441
72.56535478310829,0.0057437877796252
72.59408216029875,0.0057901998637998
72.62280953748922,0.0061456793302711
72.65153691467968,0.0058387453608708
72.68026429187015,0.0056994065141569
72.70899166906061,0.0058453995742779
72.73771904625107,0.0060698486967936
72.76644642344154,0.0056113583438412
72.795173800632,0.0055159891691479
72.82390117782246,0.0057709282152512
72.85262855501293,0.005019006034601
72.88135593220339,0.0049031502950068
72.91008330939384,0.0056681524776609
72.9388106865843,0.0051439033587633
72.96753806377477,0.0057385370270686
72.99626544096523,0.0059098721073758
73.0249928181557,0.0054947923954416
73.05372019534616,0.0054683261023946
73.08244757253662,0.0056532433850966
73.11117494972709,0.0056381276847801
73.13990232691755,0.0057833869294746
73.16862970410801,0.0058167569564171
73.19735708129848,0.005765606748159
73.22608445848894,0.0057615016143896
73.25481183567939,0.005709993958288
73.28353921286985,0.0055495976443227
73.31226659006032,0.006087490191586
73.34099396725078,0.0061550382361166
73.36972134444125,0.0057435193360887
73.39844872163171,0.005744198484716
73.42717609882217,0.0063655521561787
73.45590347601264,0.0049825652867593
73.4846308532031,0.0051774457908917
73.51335823039356,0.0057957380078853
73.54208560758403,0.0055735479100397
73.57081298477449,0.0051273320256028
73.59954036196494,0.0062966060511847
73.6282677391554,0.0056720824867335
73.65699511634587,0.0056469729653739
73.68572249353633,0.0059407871631182
73.7144498707268,0.005892043895269
73.74317724791726,0.0056965599977377
73.77190462510772,0.0059227196066386
73.80063200229819,0.0058309407945694
73.82935937948865,0.0056090842481987
73.85808675667911,0.0052061033470593
73.88681413386958,0.0071676451317841
73.91554151106004,0.0050362756615631
73.94426888825049,0.0048726343789916
73.97299626544095,0.0059886099509215
74.00172364263142,0.0052460859497318
74.03045101982188,0.0055544898862547
74.05917839701235,0.0053983305285404
74.08790577420281,0.0050132616618303
74.11663315139327,0.0053663450813447
74.14536052858374,0.0055277522965345
74.1740879057742,0.0050759389004586
74.20281528296466,0.0052597261390579
74.23154266015513,0.005393566656126
74.26027003734559,0.0055017096083448
74.28899741453604,0.0057172488762251
74.3177247917265,0.0059295973494281
74.34645216891697,0.0055248042144458
74.37517954610743,0.0055938570273672
74.4039069232979,0.0056445664300028
74.43263430048836,0.0055313620698456
74.46136167767882,0.0055688442461369
74.49008905486929,0.0062102697785847
74.51881643205975,0.0057077720584493
74.54754380925021,0.0052742940507432
74.57627118644068,0.0057902136619405
74.60499856363114,0.0054658386915606
74.63372594082159,0.0056457244823962
74.66245331801206,0.0061673616890297
74.69118069520252,0.006147731669273
74.71990807239298,0.0054308329741456
74.74863544958345,0.0058162669666191
74.77736282677391,0.0060587807479267
74.80609020396437,0.005736108008599
74.83481758115484,0.0058856569355649
74.8635449583453,0.0060563982533787
74.89227233553576,0.0057313665862569
74.92099971272623,0.005975346965752
74.94972708991669,0.0055997067070348
74.97845446710714,0.0051311315070664
75.0071818442976,0.0053560240679284
75.03590922148807,0.0057095140736704
75.06463659867853,0.0055785092012305
75.093363975869,0.0053798271692423
75.12209135305946,0.0059548132698933
75.15081873024992,0.0049983446975857
75.17954610744039,0.0049901145525396
75.20827348463085,0.0055659119622778
75.23700086182131,0.0054181825014604
75.26572823901178,0.004919275496239
75.29445561620224,0.0061875377765303
75.32318299339269,0.005511590388618
75.35191037058316,0.005410861961276
75.38063774777362,0.0056054489905984
75.40936512496408,0.0055433198953729
75.43809250215455,0.0055060615047621
75.46681987934501,0.005692773324304
75.49554725653547,0.0059598263367876
75.52427463372594,0.0047060439826115
75.5530020109164,0.0049950182442053
75.58172938810687,0.0102590192010677
75.61045676529733,0.0007060409236699
75.63918414248779,0.0060325047718568
75.66791151967824,0.0069420594876068
75.6966388968687,0.0052038583662778
75.72536627405917,0.0055151258779452
75.75409365124963,0.0059025251727467
75.7828210284401,0.0055993415064973
75.81154840563056,0.0066929942294428
75.84027578282102,0.0065776480651101
75.86900316001149,0.008019945084781
75.89773053720195,0.0090926628219291
75.92645791439242,0.0085974380792393
75.95518529158288,0.0092233536235873
75.98391266877334,0.0095345294074551
76.01264004596379,0.0098433991527393
76.04136742315426,0.0097070182029646
76.07009480034472,0.0077510472615824
76.09882217753518,0.0077950145380925
76.12754955472565,0.0076584971667102
76.15627693191611,0.0069602755955112
76.18500430910657,0.0063870749381316
76.21373168629704,0.0062112320516668
76.2424590634875,0.0056367665610907
76.27118644067797,0.0064398144103471
76.29991381786843,0.0057707308866149
76.32864119505889,0.0049055692408482
76.35736857224934,0.0059624927103438
76.3860959494398,0.0058913085349382
76.41482332663027,0.0054676139379051
76.44355070382073,0.0052825474844391
76.4722780810112,0.0059148699440529
76.50100545820166,0.0056646306606834
76.52973283539212,0.0055797595462962
76.55846021258259,0.0057754089537118
76.58718758977305,0.0056907418943326
76.61591496696352,0.0055772984063856
76.64464234415398,0.005679258906284
76.67336972134443,0.0059815500964858
76.70209709853489,0.0054185516576808
76.73082447572536,0.0056110694439078
76.75955185291582,0.0058024333775786
76.78827923010628,0.0054453143744477
76.81700660729675,0.0047928781448187
76.84573398448721,0.0062972884700417
76.87446136167767,0.0056334552067525
76.90318873886814,0.0053028478088781
76.9319161160586,0.0054860389953596
76.96064349324907,0.0054193938945555
76.98937087043953,0.0058746118267436
77.01809824762998,0.0056795249607943
77.04682562482044,0.0054053478974708
77.0755530020109,0.005102418927077
77.10428037920137,0.0051148943053934
77.13300775639183,0.0051660663381291
77.1617351335823,0.005366066842078
77.19046251077276,0.0057441960993324
77.21918988796322,0.0053543006957344
77.24791726515369,0.00510495506365
77.27664464234415,0.0053023635462388
77.30537201953462,0.0052291560117013
77.33409939672508,0.0046654998598799
77.36282677391553,0.0060642852067241
77.39155415110599,0.0055937143254082
77.42028152829646,0.0049935312823111
77.44900890548692,0.0052180022781146
77.47773628267738,0.0055933670946216
77.50646365986785,0.0054002852592167
77.53519103705831,0.005661530163321
77.56391841424877,0.0054431011321552
77.59264579143924,0.0053504525589306
77.6213731686297,0.0054035005734247
77.65010054582017,0.0056832614149128
77.67882792301063,0.0053631428208783
77.70755530020108,0.0040548029455705
77.73628267739154,0.0063484695789577
77.765010054582,0.0056732846692138
77.79373743177247,0.0038801989954662
77.82246480896293,0.0056731765200905
77.8511921861534,0.0061859572198251
77.87991956334386,0.0050070281357248
77.90864694053433,0.0058514419790418
77.93737431772479,0.00652345894203
77.96610169491525,0.0054717693967598
77.99482907210572,0.0054822536095939
78.02355644929618,0.0064160807824611
78.05228382648663,0.0059622139377064
78.0810112036771,0.005733298837777
78.10973858086756,0.0057772256314515
78.13846595805802,0.0055341031638465
78.16719333524848,0.0051627363316997
78.19592071243895,0.0053631585704249
78.22464808962941,0.005960213402846
78.25337546681988,0.0053920030621519
78.28210284401034,0.0055749036641083
78.3108302212008,0.0056856062797907
78.33955759839127,0.0054404479108003
78.36828497558173,0.0053477502960838
78.39701235277218,0.005356056672262
78.42573972996264,0.0053349008752873
78.4544671071531,0.00539360549764
78.48319448434357,0.0054468383223529
78.51192186153403,0.0053844182989406
78.5406492387245,0.0054912612214589
78.56937661591496,0.0055326305376269
78.59810399310543,0.0054575800146198
78.62683137029589,0.0055712994613961
78.65555874748635,0.0057549491303099
78.68428612467682,0.0052816207403535
78.71301350186728,0.0051124708219687
78.74174087905773,0.0065679419437022
78.7704682562482,0.0042379027019538
78.79919563343866,0.0051062795363771
78.82792301062912,0.0057474939056203
78.85665038781958,0.0054158912541757
78.88537776501005,0.0053952238465476
78.91410514220051,0.0057141520183406
78.94283251939098,0.0055324381538975
78.97155989658144,0.0054953618678101
79.0002872737719,0.0055515367399014
79.02901465096237,0.0054754406333788
79.05774202815283,0.0052027135833169
79.08646940534328,0.0052360147041052
79.11519678253374,0.0057661809427279
79.14392415972421,0.005236053024436
79.17265153691467,0.0052773711380612
79.20137891410513,0.0054671701395511
79.2301062912956,0.0052163272642843
79.25883366848606,0.005395111466405
79.28756104567653,0.0059830470371721
79.31628842286699,0.0056227093563649
79.34501580005745,0.0048368295797318
79.37374317724792,0.0055826849178103
79.40247055443838,0.0053611215522353
79.43119793162883,0.0052863908384355
79.4599253088193,0.0056699454756275
79.48865268600976,0.0056680598687816
79.51738006320022,0.0054929230822043
79.54610744039068,0.0055169707278451
79.57483481758115,0.0054835330370394
79.60356219477161,0.0054717731090842
79.63228957196208,0.0058154606646265
79.66101694915254,0.0059698777432946
79.689744326343,0.0056018918746873
79.71847170353347,0.0054724287439965
79.74719908072393,0.0057928169850175
79.77592645791438,0.0060831772784218
79.80465383510484,0.005520968108735
79.83338121229531,0.0052918612706679
79.86210858948577,0.0099225454080119
79.89083596667624,0.0104071355662506
79.9195633438667,0.0108450704189706
79.94829072105716,0.0110781968675808
79.97701809824763,0.0110787124825556
80.00574547543809,0.0113945624343019
80.03447285262855,0.0108034795926176
80.06320022981902,0.0096525174234042
80.09192760700948,0.010392979000197
80.12065498419993,0.0075404230745101
80.1493823613904,0.0063046023839653
80.17810973858086,0.0056738746105395
80.20683711577132,0.0062616361095302
80.23556449296179,0.0060589150406335
80.26429187015225,0.0057463281748382
80.29301924734271,0.0059291463623703
80.32174662453318,0.0054237390993698
80.35047400172364,0.0054420704920394
80.3792013789141,0.0055340613272332
80.40792875610457,0.0058359359471861
80.43665613329503,0.0051345016348373
80.46538351048548,0.0050135529951273
80.49411088767594,0.0052858561503967
80.52283826486641,0.0051594502619879
80.55156564205687,0.0059565202804175
80.58029301924734,0.0057994013502486
80.6090203964378,0.0055137398202298
80.63774777362826,0.0053180522423712
80.66647515081873,0.0053317917449909
80.69520252800919,0.0056730893726447
80.72392990519965,0.0056464172197392
80.75265728239012,0.0057764207749023
80.78138465958058,0.0056968500321851
80.81011203677103,0.0054824682069019
80.8388394139615,0.0055629775619225
80.86756679115196,0.0059227169162142
80.89629416834242,0.0056612250038224
80.92502154553289,0.0050419916161994
80.95374892272335,0.0055572782944158
80.98247629991381,0.0055837969290058
81.01120367710428,0.0056659907421205
81.03993105429474,0.0057611851313707
81.0686584314852,0.0055025279023779
81.09738580867567,0.0054180894668064
81.12611318586613,0.0057331468708902
81.15484056305658,0.0060504806755862
81.18356794024704,0.0052582447343891
81.21229531743751,0.0054628915387864
81.24102269462797,0.0054149384297952
81.26975007181844,0.0053340026622038
81.2984774490089,0.0058043250313857
81.32720482619936,0.0057472811634575
81.35593220338983,0.0056761059394359
81.38465958058029,0.0051973026127021
81.41338695777075,0.0054364384042842
81.44211433496122,0.0057601439441589
81.47084171215168,0.0057945684284227
81.49956908934213,0.005718485420909
81.5282964665326,0.0058606803095939
81.55702384372306,0.0058122084954737
81.58575122091352,0.0059719764805031
81.61447859810399,0.0060543343790836
81.64320597529445,0.0056302144188002
81.67193335248491,0.0059500037601204
81.70066072967538,0.0059426420003445
81.72938810686584,0.0060168255300515
81.7581154840563,0.0054036989450244
81.78684286124677,0.0054984568112238
81.81557023843723,0.0043790339681672
81.84429761562768,0.006567686221899
81.87302499281815,0.005713918342469
81.90175237000861,0.0052322968559071
81.93047974719907,0.0055290669626447
81.95920712438954,0.0055338827462944
81.98793450158,0.0054301968738031
82.01666187877046,0.0052970230040433
82.04538925596093,0.005348173477665
82.07411663315139,0.0054615616895052
82.10284401034185,0.0051749818163343
82.13157138753232,0.005606904733923
82.16029876472278,0.0052190449133656
82.18902614191323,0.0048155147750953
82.2177535191037,0.0052611290110258
82.24648089629416,0.0053195445903259
82.27520827348462,0.0052573368810472
82.30393565067509,0.005399914138863
82.33266302786555,0.0058290321816687
82.36139040505601,0.0049641854715783
82.39011778224648,0.0051572432530511
82.41884515943694,0.0063393964279392
82.4475725366274,0.0054398193407022
82.47629991381787,0.0056843078853141
82.50502729100832,0.006250275214848
82.53375466819878,0.0050100469002414
82.56248204538925,0.0050393772873015
82.59120942257971,0.0069474154277906
82.61993679977017,0.0056030589607661
82.64866417696064,0.0051892157799416
82.6773915541511,0.0054488020090566
82.70611893134156,0.0056678008973588
82.73484630853203,0.0050842077394918
82.76357368572249,0.0054792716544339
82.79230106291295,0.0056698855154728
82.82102844010342,0.0055481967253132
82.84975581729387,0.0057114730868835
82.87848319448433,0.0058638899397203
82.9072105716748,0.0053181857822867
82.93593794886526,0.0052924175921673
82.96466532605572,0.0056947902713683
82.99339270324619,0.0058787948767526
83.02212008043665,0.0055038745537929
83.05084745762711,0.005883872268297
83.07957483481758,0.0057241781449694
83.10830221200804,0.0047001964953033
83.1370295891985,0.006324043146005
83.16575696638897,0.0064133598802296
83.19448434357942,0.0054220959832257
83.22321172076988,0.0056203790050726
83.25193909796035,0.0058966817857504
83.28066647515081,0.0055753086931641
83.30939385234127,0.0058660716233195
83.33812122953174,0.0045428037053845
83.3668486067222,0.0051350682921579
83.39557598391266,0.0053350105897814
83.42430336110313,0.0051999000357817
83.45303073829359,0.0051586319043529
83.48175811548406,0.0050212137416697
83.51048549267452,0.0052165789431032
83.53921286986497,0.005518767193732
83.56794024705543,0.0051772042528695
83.5966676242459,0.0052706121740081
83.62539500143636,0.0055141374599421
83.65412237862682,0.0054947708765847
83.68284975581729,0.0054678284117827
83.71157713300775,0.0056998029666596
83.74030451019821,0.005479754073847
83.76903188738868,0.0054895982887772
83.79775926457914,0.0055692642419831
83.8264866417696,0.0061928672655498
83.85521401896007,0.0081077342458337
83.88394139615052,0.0103486851375032
83.91266877334098,0.0138884188338532
83.94139615053145,0.0155673733991389
83.97012352772191,0.015973069320322
83.99885090491237,0.0160428158751657
84.02757828210284,0.0160894234650164
84.0563056592933,0.0161045823143131
84.08503303648376,0.0152494529928079
84.11376041367423,0.0127160013896064
84.14248779086469,0.0094094484502096
84.17121516805516,0.0072777485519653
84.19994254524562,0.0064970848717576
84.22866992243607,0.0066507205786994
84.25739729962653,0.0066189964729068
84.286124676817,0.0063840569039867
84.31485205400746,0.0066402716432287
84.34357943119792,0.0062981669072835
84.37230680838839,0.0057752088225717
84.40103418557885,0.0057322959323982
84.42976156276931,0.0059081098877698
84.45848893995978,0.0059104565383407
84.48721631715024,0.0055338038070037
84.5159436943407,0.0053949755598358
84.54467107153117,0.0058275300673194
84.57339844872162,0.0051991866356209
84.60212582591208,0.0057211147899595
84.63085320310255,0.0048697089781907
84.65958058029301,0.0050334888037897
84.68830795748347,0.0054656802136914
84.71703533467394,0.0056157659262253
84.7457627118644,0.0055258637337764
84.77449008905486,0.0055531820775932
84.80321746624533,0.0057011584167567
84.83194484343579,0.0054653065333663
84.86067222062626,0.0054619949940005
84.88939959781672,0.0054197375145477
84.91812697500717,0.0054930282111091
84.94685435219763,0.005428250239469
84.9755817293881,0.0057466912208641
85.00430910657856,0.0055232059000534
85.03303648376902,0.0053374427494334
85.06176386095949,0.0056575780886359
85.09049123814995,0.0057237076206858
85.11921861534042,0.0052346812444123
85.14794599253088,0.0057448099441566
85.17667336972134,0.005569144233435
85.2054007469118,0.0053521884168576
85.23412812410227,0.0056434316671448
85.26285550129272,0.0057082469133819
85.29158287848318,0.0052216668889498
85.32031025567365,0.0051871774084502
85.34903763286411,0.005396571562018
85.37776501005457,0.0053452600586668
85.40649238724504,0.0051210790960848
85.4352197644355,0.0057398050121414
85.46394714162597,0.0052122457330125
85.49267451881643,0.0048403911420502
85.52140189600689,0.0056649813123454
85.55012927319736,0.0053867782740225
85.57885665038782,0.0052313897035086
85.60758402757827,0.0055030091489418
85.63631140476873,0.0056351574979968
85.6650387819592,0.0049610474964607
85.69376615914966,0.0056060140083708
85.72249353634012,0.0058215787080049
85.75122091353059,0.0058327015550494
85.77994829072105,0.0057331364764172
85.80867566791152,0.005631001071699
85.83740304510198,0.0057111144251958
85.86613042229244,0.0058168252830798
85.8948577994829,0.0058215108091477
85.92358517667337,0.0055372042251924
85.95231255386382,0.0053719368231302
85.98103993105428,0.0060741048534693
86.00976730824475,0.0057661746976938
86.03849468543521,0.0056441914952744
86.06722206262567,0.0058214721377836
86.09594943981614,0.0055062682599536
86.1246768170066,0.0052648413545946
86.15340419419707,0.0055990582786232
86.18213157138753,0.0056380252105102
86.210858948578,0.00537085034474
86.23958632576846,0.00592405310217
86.26831370295892,0.0059465541788346
86.29704108014937,0.0055173980701473
86.32576845733983,0.0056742042234277
86.3544958345303,0.0059084478712978
86.38322321172076,0.0059065742367958
86.41195058891122,0.0058032455418031
86.44067796610169,0.0059895763458906
86.46940534329215,0.0056505426974726
86.49813272048262,0.0055561879054075
86.52686009767308,0.0058452552615136
86.55558747486354,0.0056620826786961
86.584314852054,0.0056532481072064
86.61304222924447,0.0060584757043592
86.64176960643492,0.0054042776955919
86.67049698362538,0.0056552616460894
86.69922436081585,0.0062156258153453
86.72795173800631,0.0058612944959828
86.75667911519677,0.0056446890888872
86.78540649238724,0.0055335631247264
86.8141338695777,0.005468162903183
86.84286124676817,0.0054487649859105
86.87158862395863,0.0054954824798239
86.9003160011491,0.005482638850261
86.92904337833956,0.0059154277170714
86.95777075553002,0.0047696548653759
86.98649813272047,0.0049943559273095
87.01522550991093,0.0053318186726707
87.0439528871014,0.0052276912405848
87.07268026429186,0.0057945682973656
87.10140764148233,0.0054998982984503
87.13013501867279,0.0050662572888581
87.15886239586325,0.0057381650751408
87.18758977305372,0.0057664858010928
87.21631715024418,0.0057741750857603
87.24504452743464,0.0058553736907984
87.27377190462511,0.0056681008199446
87.30249928181557,0.0053308518074168
87.33122665900602,0.0053896844282668
87.35995403619648,0.0057610791814128
87.38868141338695,0.0055662388082994
87.41740879057741,0.0055645118937065
87.44613616776788,0.0056583183217479
87.47486354495834,0.0051511220378216
87.5035909221488,0.0047099150615036
87.53231829933927,0.0067514238814137
87.56104567652973,0.0056852083964351
87.5897730537202,0.0052407040685511
87.61850043091066,0.005673710480375
87.64722780810112,0.005446681808939
87.67595518529157,0.0056659605494733
87.70468256248203,0.0060381193752128
87.7334099396725,0.0058428059709672
87.76213731686296,0.0056428721788077
87.79086469405343,0.005790980811032
87.81959207124389,0.0058803107837426
87.84831944843435,0.0054480813430627
87.87704682562482,0.0058371062127268
87.90577420281528,0.0065320004893094
87.93450158000574,0.0079874719896842
87.96322895719621,0.0101253326450808
87.99195633438667,0.0096654425046792
88.02068371157712,0.0101376300088971
88.04941108876758,0.0101136487230543
88.07813846595805,0.0102779234868601
88.10686584314851,0.0100877848214755
88.13559322033898,0.0094857252178538
88.16432059752944,0.008885633134924
88.1930479747199,0.0076221170311421
88.22177535191037,0.0067141208657536
88.25050272910083,0.0062991638288809
88.2792301062913,0.0057836373687507
88.30795748348176,0.0057909226429624
88.33668486067221,0.0063347960345951
88.36541223786267,0.005589609688675
88.39413961505313,0.0058067541291535
88.4228669922436,0.0061790212203243
88.45159436943406,0.0062907624680623
88.48032174662453,0.0056708365384392
88.50904912381499,0.0056654146373531
88.53777650100545,0.0062442185596159
88.56650387819592,0.005429694378818
88.59523125538638,0.00509885043555
88.62395863257684,0.006524280376284
88.65268600976731,0.0058514567430512
88.68141338695776,0.005848342157905
88.71014076414822,0.0060378210530847
88.73886814133868,0.005722342964763
88.76759551852915,0.0054733010645619
88.79632289571961,0.0064438760476111
88.82505027291008,0.0063059963412159
88.85377765010054,0.0056804470468658
88.882505027291,0.0060135651996729
88.91123240448147,0.0055094683531407
88.93995978167193,0.0059276179485551
88.9686871588624,0.00619801469153
88.99741453605286,0.0058362198516475
89.02614191324331,0.0055118773357097
89.05486929043377,0.005668615520752
89.08359666762424,0.0055570037299577
89.1123240448147,0.0053634824772258
89.14105142200516,0.0057047225383471
89.16977879919563,0.005609652342971
89.19850617638609,0.0053172032157503
89.22723355357655,0.0056388478661419
89.25596093076702,0.0054387248166967
89.28468830795748,0.004725819973967
89.31341568514794,0.006731118883273
89.34214306233841,0.0059309031375262
89.37087043952886,0.004853707653129
89.39959781671932,0.0053947434430978
89.42832519390979,0.0055622419479387
89.45705257110025,0.0051919749343145
89.48577994829071,0.0051023234938386
89.51450732548118,0.0058062495299807
89.54323470267164,0.0055588880328548
89.5719620798621,0.0053082765110118
89.60068945705257,0.0058094593113496
89.62941683424303,0.0062369881718629
89.6581442114335,0.005371820417748
89.68687158862396,0.0058717180762799
89.71559896581441,0.005869834644547
89.74432634300487,0.0055911700693364
89.77305372019534,0.006063258748652
89.8017810973858,0.0060222795947448
89.83050847457626,0.0057405738087269
89.85923585176673,0.0061830680263326
89.88796322895719,0.0052371985165315
89.91669060614765,0.0053098769329779
89.94541798333812,0.005808786761079
89.97414536052858,0.0054901841466301
90.00287273771904,0.0050705146871697
90.03160011490951,0.0062270947536345
90.06032749209996,0.0058211775120307
90.08905486929042,0.0053528355441157
90.11778224648089,0.0054509186529362
90.14650962367136,0.0060297429085809
90.1752370008618,0.0055665787645674
90.20396437805228,0.0060056183560222
90.23269175524274,0.0064787963418497
90.2614191324332,0.0060063119289857
90.29014650962368,0.0057954487057425
90.31887388681412,0.0059225629046479
90.3476012640046,0.0056746155883122
90.37632864119506,0.0053402422079036
90.40505601838552,0.0066323320901864
90.43378339557596,0.0056796512132921
90.46251077276644,0.0054034152520099
90.4912381499569,0.0056772045981702
90.51996552714736,0.0059666184455737
90.54869290433784,0.0059678316428818
90.57742028152828,0.005914103657777
90.60614765871875,0.0059244554807504
90.63487503590922,0.0057104316541296
90.66360241309968,0.0055893876244707
90.69232979029016,0.0060167938236334
90.7210571674806,0.0059258154319728
90.74978454467106,0.0054286532595599
90.77851192186152,0.005729431057803
90.807239299052,0.0050226213909111
90.83596667624244,0.0049555081552259
90.86469405343291,0.0054167449253154
90.89342143062338,0.0055446499124021
90.92214880781384,0.0054515453044261
90.9508761850043,0.0057297652300166
90.97960356219475,0.0056525838551015
91.00833093938525,0.0056722890193368
91.0370583165757,0.0057911995225006
91.06578569376616,0.0055598419194948
91.0945130709566,0.0053705238589836
91.12324044814709,0.0054869799788003
91.15196782533754,0.0055265287594394
91.180695202528,0.0053757654958037
91.20942257971846,0.0054734147190283
91.23814995690891,0.0056101082686213
91.2668773340994,0.005406335624008
91.29560471128984,0.0052679828669156
91.32433208848032,0.0056036690449785
91.35305946567078,0.0053305109634899
91.38178684286125,0.0056841050285435
91.41051422005172,0.0060837417979196
91.43924159724216,0.0060038601580486
91.46796897443262,0.0055739214082071
91.49669635162309,0.0054407095322461
91.52542372881356,0.005572447337546
91.554151106004,0.0054847848928451
91.58287848319448,0.0053494447344133
91.61160586038494,0.0062162047333932
91.6403332375754,0.0060811954956721
91.66906061476588,0.0056263672092759
91.69778799195632,0.0058073729481724
91.7265153691468,0.0056034673627692
91.75524274633726,0.0065502963988114
91.78397012352772,0.0066849073253132
91.81269750071816,0.0061998579492563
91.84142487790864,0.0057294757449984
91.8701522550991,0.0057480313343537
91.89887963228956,0.0060611782346112
91.92760700948004,0.0060844286370612
91.95633438667048,0.0067841841943239
91.98506176386095,0.0071342062873151
92.01378914105142,0.0078331587036027
92.04251651824188,0.0100936128881737
92.07124389543236,0.0105780046700947
92.0999712726228,0.0112547670230542
92.12869864981326,0.0119133986559115
92.15742602700372,0.0116718165259347
92.1861534041942,0.010666337787327
92.21488078138464,0.0108447782198349
92.24360815857511,0.0114149514550871
92.27233553576558,0.0028949440319834
92.30106291295604,0.0101505368639433
92.3297902901465,0.0227080821870034
92.35851766733695,0.00914223696547025
92.38724504452745,0.0064463383813042
92.4159724217179,0.0073374984476459
92.44469979890836,0.0053160218809413
92.4734271760988,0.0059735471196444
92.50215455328927,0.0063833067033912
92.53088193047974,0.0057025196721222
92.5596093076702,0.0060162461307207
92.58833668486066,0.006615571452896
92.61706406205111,0.0060474175823273
92.6457914392416,0.0056405884779697
92.67451881643206,0.0059702025691723
92.70324619362252,0.0055012469053517
92.73197357081298,0.0047080490995711
92.76070094800345,0.0072128230843698
92.78942832519392,0.0070259359465932
92.81815570238436,0.0048091046994104
92.84688307957482,0.0065230845983482
92.87561045676529,0.0062073274447318
92.90433783395576,0.0059507455863583
92.9330652111462,0.0059965448043889
92.96179258833668,0.006332659181467
