timestamp,emg
2.3843723068083884,0.0012413951335755
2.4130996839988508,0.0038108331534961
2.441827061189313,0.0037480631354065
2.470554438379776,0.0036547207362857
2.4992818155702383,0.0037731059343033
2.5280091927607007,0.0035296667354332
2.5567365699511635,0.0035737228199165
2.585463947141626,0.0037006664832072
2.614191324332088,0.00341321491432
2.6429187015225506,0.0037219620126005
2.6716460787130134,0.0038413595858065
2.700373455903476,0.0035195515575074
2.729100833093938,0.0035764503705523
2.757828210284401,0.003972553758512
2.7865555874748633,0.0036905596500646
2.8152829646653257,0.0039432760865421
2.8440103418557885,0.0035577776232716
2.872737719046251,0.003374671624872
2.9014650962367132,0.0035065210548539
2.930192473427176,0.0034412414880889
2.9589198506176384,0.0033720796489816
2.9876472278081008,0.0035841181814589
3.0163746049985636,0.0034874157906628
3.045101982189026,0.0031911015613499
3.0738293593794883,0.0035665279114382
3.102556736569951,0.0035959093809028
3.1312841137604135,0.0036345054656578
3.160011490950876,0.0036967974812238
3.1887388681413387,0.0035108504298583
3.217466245331801,0.0034901270351644
3.2461936225222634,0.0034921169844344
3.274920999712726,0.0035413549926061
3.303648376903189,0.0034124572453039
3.332375754093651,0.003339547903079
3.3611031312841133,0.0035331816179859
3.389830508474576,0.0035293464094347
3.4185578856650385,0.0034051797437159
3.447285262855501,0.0032674960106768
3.4760126400459637,0.0032217592910342
3.504740017236426,0.003278511711726
3.5334673944268884,0.0032130878627029
3.562194771617351,0.0031618187282215
3.5909221488078136,0.0030810687593022
3.619649525998276,0.0029543921375229
3.648376903188739,0.0031008801767206
3.677104280379201,0.0032523683194212
3.705831657569663,0.0032228946990621
3.7345590347601263,0.0031051099546346
3.7632864119505887,0.0029726405225673
3.792013789141051,0.0038506075090059
3.820741166331514,0.0036184668954418
3.849468543521976,0.0034960298162315
3.8781959207124386,0.0036365159177342
3.9069232979029014,0.0036439488815115
3.935650675093364,0.003566204899512
3.964378052283826,0.003650083996315
3.993105429474289,0.003645481169983
4.021832806664751,0.0034894500343663
4.050560183855214,0.0036275692312731
4.0792875610456765,0.003558902573505
4.108014938236138,0.003391029660132
4.136742315426601,0.0034528628322574
4.165469692617064,0.0035486267195021
4.194197069807526,0.0036025375097834
4.222924446997989,0.0035843464595838
4.251651824188452,0.0033947592709555
4.2803792013789135,0.0034534209265293
4.309106578569376,0.0036009548606641
4.337833955759839,0.0035731739315752
4.366561332950301,0.0035264977521105
4.395288710140764,0.0034905165172331
4.424016087331227,0.0033995294754453
4.452743464521689,0.0033428169194487
4.481470841712151,0.0033547160207888
4.510198218902614,0.003333168438568
4.538925596093076,0.0032508264964836
4.567652973283539,0.0034400387319004
4.596380350474002,0.0032631885650457
4.625107727664464,0.0036255077145657
4.6538351048549265,0.0037515786812205
4.682562482045389,0.003555583638871
4.711289859235851,0.0036654056809125
4.740017236426314,0.0037311822708147
4.768744613616777,0.0036949753351816
4.797471990807239,0.0036497066982165
4.8261993679977016,0.0036654658146945
4.854926745188164,0.0035958910852742
4.883654122378626,0.0034136362234853
4.912381499569089,0.003447286314114
4.941108876759552,0.0034054966049539
4.969836253950014,0.0032460290662528
4.998563631140477,0.0034244789705241
5.0272910083309394,0.0033807578654918
5.056018385521401,0.0034623351961795
5.084745762711864,0.0032132469648354
5.113473139902327,0.0030485575601956
5.142200517092789,0.0032661968634034
5.170927894283252,0.0031818225183783
5.199655271473714,0.0028978006242934
5.2283826486641765,0.0030912142969201
5.257110025854639,0.0026283447298448
5.285837403045101,0.0038272954052912
5.314564780235564,0.0033236762764068
5.343292157426027,0.003224119921665
5.372019534616489,0.0032467830405188
5.4007469118069515,0.0034833331340158
5.429474288997414,0.0035463129004383
5.458201666187876,0.0035649810881392
5.486929043378339,0.0035682884831288
5.515656420568802,0.0034799827057342
5.544383797759264,0.0035288077339042
5.573111174949727,0.0034508387179707
5.601838552140189,0.0034837216066954
5.630565929330651,0.0036308525355367
5.659293306521114,0.0034920716287088
5.688020683711577,0.0035984234399443
5.716748060902039,0.0034818810881546
5.745475438092502,0.0033961751862779
5.7742028152829645,0.0034385021265531
5.8029301924734265,0.0033167267429625
5.831657569663889,0.0033053412643413
5.860384946854352,0.0032572505923583
5.889112324044814,0.0031782220054516
5.917839701235277,0.0031391747893287
5.94656707842574,0.0032317885431202
5.9752944556162015,0.0033338606197326
6.004021832806664,0.0033581547778926
6.032749209997127,0.0033245922737902
6.061476587187589,0.0033310876725197
6.090203964378052,0.0034632042108263
6.118931341568515,0.0035397617532747
6.147658718758977,0.0034948395632273
6.176386095949439,0.0034649545911794
6.205113473139902,0.0032899209069162
6.233840850330364,0.0035412378785593
6.262568227520827,0.0033919408417626
6.29129560471129,0.0036511123411244
6.320022981901752,0.0036648856357473
6.3487503590922145,0.0031209084315267
6.377477736282677,0.0035887113023762
6.406205113473139,0.0034661537959415
6.434932490663602,0.0033414312166149
6.463659867854065,0.0033559672635416
6.492387245044527,0.0033508409795332
6.52111462223499,0.0033481767734073
6.549841999425452,0.0033229851073672
6.578569376615914,0.0033661888261367
6.607296753806377,0.0033884769113783
6.636024130996839,0.0033073270103605
6.664751508187302,0.0033194688756288
6.693478885377765,0.0033436159104939
6.722206262568227,0.0032720621024063
6.750933639758689,0.0033522487155466
6.779661016949152,0.0033410861219838
6.808388394139614,0.0033483109743365
6.837115771330077,0.0034616402391226
6.86584314852054,0.0032824810305004
6.894570525711002,0.0037754630087466
6.9232979029014645,0.0036920508896075
6.952025280091927,0.0035827230565119
6.980752657282389,0.0036574490029832
7.009480034472852,0.003766617196437
7.038207411663315,0.0036187028696789
7.066934788853777,0.0034963572508806
7.09566216604424,0.0035408090600958
7.124389543234702,0.0034379701121495
7.153116920425164,0.0032961070599072
7.181844297615627,0.0034245876192695
7.21057167480609,0.0031240039745426
7.239299051996552,0.0030733805152389
7.268026429187015,0.0032633547436073
7.296753806377477,0.0032030620903146
7.325481183567939,0.003238682411786
7.354208560758402,0.0034140297182124
7.382935937948865,0.0032373769791996
7.411663315139327,0.0033999197986551
7.44039069232979,0.0030049190572221
7.469118069520253,0.0023145787027107
7.497845446710715,0.0017321122178578
7.526572823901177,0.010382728280758584
7.55530020109164,0.011065756045730147
7.584027578282102,0.0124175182817301
7.612754955472565,0.0182834538311531
7.641482332663028,0.0212641449601706
7.67020970985349,0.0201555906158927
7.698937087043952,0.0205997342480668
7.727664464234415,0.0194524303377956
7.756391841424877,0.0182456319192888
7.78511921861534,0.0187889973080404
7.813846595805803,0.007800491656973
7.842573972996265,0.0058916603790701
7.871301350186728,0.0043906732836744
7.90002872737719,0.0049169568807143
7.928756104567652,0.0050373778337125
7.957483481758115,0.0045064760544237
7.986210858948578,0.0039129903107054
8.01493823613904,0.0036293323822468
8.043665613329502,0.0035595517863102
8.072392990519965,0.0035162423075673
8.101120367710427,0.0037930640671038
8.12984774490089,0.0037687257269218
8.158575122091353,0.0035226737864698
8.187302499281815,0.0036706145840079
8.216029876472277,0.0037076727645824
8.24475725366274,0.0036513287637515
8.273484630853202,0.0037564890046155
8.302212008043664,0.0038385441259304
8.330939385234128,0.0037611196393371
8.35966676242459,0.0035349852247656
8.388394139615052,0.0035925584631499
8.417121516805516,0.0035686511863257
8.445848893995977,0.0035030468902889
8.47457627118644,0.0034733858981446
8.503303648376903,0.0034040328863043
8.532031025567365,0.003338193766477
8.560758402757827,0.0032841250424788
8.58948577994829,0.0033398090572777
8.618213157138753,0.0034232861929021
8.646940534329215,0.0033665664862311
8.675667911519678,0.0034493054239137
8.70439528871014,0.003561894687563
8.733122665900602,0.0036590532160557
8.761850043091066,0.0037304867322191
8.790577420281528,0.0038791453529343
8.81930479747199,0.0035686760607184
8.848032174662453,0.0035882829820197
8.876759551852915,0.003816875829068
8.905486929043377,0.0037229486191773
8.93421430623384,0.003661348249816
8.962941683424303,0.0036412707414124
8.991669060614765,0.0036519830304384
9.020396437805228,0.0036353909714331
9.04912381499569,0.0036403421717661
9.077851192186152,0.0037165578418885
9.106578569376616,0.0035911633985436
9.135305946567078,0.0036088406992936
9.16403332375754,0.0038074441016295
9.192760700948003,0.0037806272227692
9.221488078138464,0.0037525087977816
9.250215455328927,0.0038734685205447
9.278942832519393,0.0039043032754748
9.307670209709851,0.0042071914016298
9.336397586900317,0.0042105881949763
9.36512496409078,0.0041617539300092
9.39385234128124,0.0043919702980004
9.422579718471702,0.004350445610367
9.451307095662166,0.0044298973028932
9.480034472852628,0.0039533220208991
9.50876185004309,0.0039208963044273
9.537489227233554,0.0041020531003619
9.566216604424016,0.0037864717112129
9.594943981614476,0.0037184521084224
9.62367135880494,0.0034712873581231
9.652398735995405,0.0035196897877187
9.681126113185863,0.0039294276958306
9.709853490376329,0.003816899386105
9.73858086756679,0.0037660289837695
9.767308244757253,0.0038102960745388
9.796035621947716,0.0037791953958694
9.824762999138178,0.0038275921979243
9.85349037632864,0.0039341379790701
9.882217753519104,0.0039604298764061
9.910945130709566,0.0036631107046447
9.939672507900028,0.0036910915209992
9.968399885090491,0.0038191637106977
9.997127262280951,0.003864777044681
10.025854639471415,0.0038507099965912
10.05458201666188,0.0038474332707065
10.08330939385234,0.0037833152449332
10.112036771042805,0.0037690923147231
10.140764148233266,0.0039027963651509
10.169491525423728,0.003975351826317
10.19821890261419,0.0038552843301404
10.226946279804654,0.0039899769605459
10.255673656995116,0.0039718332217543
10.284401034185578,0.003967876818495
10.31312841137604,0.0040313058872076
10.341855788566503,0.0039481645001685
10.370583165756964,0.003984833099391
10.399310542947427,0.003914801342178
10.428037920137893,0.0041060492754274
10.456765297328351,0.0040658022335675
10.485492674518817,0.003851020164408
10.51422005170928,0.003841770363889
10.54294742889974,0.0039312986392285
10.571674806090202,0.0037726447318542
10.600402183280666,0.0043537108415405
10.629129560471128,0.0041839174140326
10.65785693766159,0.003866391000579
10.686584314852054,0.0041818091244628
10.715311692042516,0.0041645116721403
10.744039069232976,0.0039818326273974
10.77276644642344,0.0040085917088028
10.801493823613905,0.0040409234737165
10.830221200804363,0.0040024659653476
10.858948577994829,0.0040749928371164
10.88767595518529,0.0039564916959443
10.916403332375753,0.0040950847690909
10.945130709566216,0.0041864595465419
10.973858086756678,0.004086644072664
11.00258546394714,0.0042539152250067
11.031312841137604,0.0042007205208089
11.060040218328066,0.004078023472176
11.088767595518528,0.0040590271043488
11.117494972708991,0.0037763876786014
11.146222349899451,0.0037437904684947
11.174949727089915,0.0040650547372067
11.20367710428038,0.0038590179323322
11.23240448147084,0.0037777538818242
11.261131858661305,0.0037829091755349
11.289859235851766,0.0038280448001498
11.318586613042228,0.0038108710388012
11.34731399023269,0.0039952105261457
11.376041367423154,0.0040740176464833
11.404768744613616,0.0039416766824718
11.433496121804078,0.0038099464319313
11.462223498994542,0.0038342392862283
11.490950876185003,0.0045041240833186
11.519678253375464,0.0084724292726719
11.548405630565927,0.0090107880229666
11.577133007756393,0.0139168175675139
11.605860384946851,0.0169109249565662
11.634587762137317,0.0173306808437194
11.66331513932778,0.0175291219013564
11.69204251651824,0.0183072323486609
11.720769893708704,0.0168585676562234
11.749497270899166,0.0166754116591423
11.778224648089628,0.0186163370528666
11.806952025280092,0.0057314554373865
11.835679402470554,0.0072409901718301
11.864406779661016,0.0070402730509082
11.89313415685148,0.0058200091188873
11.92186153404194,0.0060593626022721
11.950588911232405,0.0063359461572303
11.979316288422869,0.0059859815993526
12.008043665613329,0.0055049728282456
12.03677104280379,0.0057107087862944
12.065498419994254,0.0051727929043856
12.094225797184716,0.0044757025856109
12.122953174375178,0.0048463002934608
12.151680551565642,0.0042533756033111
12.180407928756104,0.0035901742649865
12.209135305946566,0.0040546128644705
12.23786268313703,0.0041058666728279
12.266590060327491,0.0036270880886667
12.295317437517951,0.0040043075855493
12.324044814708415,0.0041893074799875
12.35277219189888,0.0041202245845004
12.38149956908934,0.004494947220473
12.410226946279804,0.0045003637557022
12.438954323470266,0.0043527600442388
12.467681700660728,0.0059867558609312
12.496409077851192,0.0058097394335697
12.525136455041654,0.0056609518874231
12.553863832232116,0.0058516600468235
12.58259120942258,0.0061146512876275
12.611318586613042,0.0072015914765842
12.640045963803503,0.0059901782369968
12.668773340993967,0.0059743005649719
12.697500718184427,0.0057889947412107
12.726228095374893,0.0055717536717815
12.754955472565356,0.0062224543260371
12.783682849755817,0.004750213603882
12.81241022694628,0.0051202373719449
12.841137604136742,0.0049407896965352
12.869864981327204,0.0042418263714727
12.898592358517666,0.0041514773614756
12.92731973570813,0.0049996942377149
12.956047112898592,0.0036120951632669
12.984774490089054,0.0033970364146596
13.013501867279516,0.0041285376423575
13.04222924446998,0.003884593219749
13.07095662166044,0.0040536833747632
13.099683998850905,0.0041446047940616
13.128411376041369,0.0042167020212927
13.157138753231829,0.0043196201659768
13.185866130422292,0.0041047027094605
13.214593507612754,0.00407685293378
13.243320884803216,0.0042464715837734
13.272048261993678,0.0044097569502698
13.300775639184142,0.0043057755573522
13.329503016374604,0.0042765177125716
13.358230393565066,0.0043701222863407
13.38695777075553,0.0038552354024528
13.415685147945991,0.0053601774811062
13.444412525136451,0.0058423414250635
13.473139902326915,0.0056179412532359
13.50186727951738,0.0059190126018349
13.53059465670784,0.0059897003342946
13.559322033898304,0.0062035385384701
13.588049411088766,0.0066539964010803
13.616776788279228,0.0056663783003773
13.645504165469692,0.0059148533960518
13.674231542660154,0.0051628582884633
13.702958919850616,0.0042394620551646
13.73168629704108,0.0043236185914896
13.76041367423154,0.0041819570301667
13.789141051422003,0.0039846559816215
13.817868428612467,0.004436087520688
13.846595805802927,0.0047354343284595
13.875323182993393,0.0046175886005059
13.904050560183856,0.004669086675346
13.932777937374317,0.0047516344522591
13.96150531456478,0.0048673969847909
13.990232691755242,0.0051669521980087
14.018960068945704,0.0053926048749833
14.047687446136166,0.0055073617672439
14.07641482332663,0.0052763800995141
14.105142200517092,0.0045647911176765
14.133869577707554,0.0049517092609807
14.162596954898016,0.004986933802022
14.19132433208848,0.0051523394868166
14.22005170927894,0.0036971190285847
14.248779086469405,0.0040177945580269
14.277506463659869,0.004422609794963
14.306233840850329,0.0043820604799099
14.334961218040792,0.0043942767851344
14.363688595231254,0.0039743152759266
14.392415972421716,0.0041934580029147
14.42114334961218,0.0042724138443436
14.449870726802642,0.0042300851091133
14.478598103993104,0.004652621231964
14.507325481183567,0.0048170079222214
14.53605285837403,0.0045049179796173
14.564780235564491,0.0045261527556075
14.593507612754957,0.0046651412216902
14.622234989945415,0.0046605909916539
14.65096236713588,0.0043235795448404
14.679689744326344,0.004012880710125
14.708417121516804,0.0040142236669905
14.737144498707266,0.0040316375721534
14.76587187589773,0.0040188177875343
14.794599253088192,0.0040181322117404
14.823326630278654,0.0040875855242612
14.852054007469118,0.0041421951410171
14.88078138465958,0.0039055822504605
14.90950876185004,0.0052785101539262
14.938236139040503,0.0032741549288843
14.966963516230969,0.0029666526963497
14.995690893421427,0.0048153584530789
15.024418270611893,0.0049853096600441
15.053145647802356,0.0047342657628587
15.081873024992817,0.0048220110870732
15.11060040218328,0.0050993482922312
15.139327779373742,0.0051133247606836
15.168055156564204,0.0051879986330443
15.196782533754668,0.0057227339970786
15.22550991094513,0.0054418985747402
15.254237288135592,0.0050755969288038
15.282964665326055,0.0047930938229689
15.311692042516515,0.0048632307920367
15.34041941970698,0.0047656856479885
15.369146796897445,0.0042068219871381
15.397874174087905,0.0041783811377151
15.426601551278369,0.0045416947086901
15.45532892846883,0.0041809146788209
15.484056305659292,0.0043188110060797
15.512783682849754,0.0046184105342591
15.541511060040218,0.0045633626861816
15.57023843723068,0.0043286438213297
15.598965814421142,0.0046914701978177
15.627693191611606,0.0046688892547023
15.656420568802067,0.0028714262057767
15.68514794599253,0.0064649678679194
15.713875323182991,0.0116467362524224
15.742602700373457,0.0065963570660519
15.771330077563915,0.015041929755415717
15.80005745475438,0.0229828208551329
15.828784831944844,0.0194738240722417
15.857512209135304,0.023086872418726
15.886239586325768,0.0225431979958243
15.91496696351623,0.0228349606873345
15.943694340706692,0.0225194033763281
15.972421717897156,0.0176317008181786
16.001149095087616,0.0105780965750216
16.02987647227808,0.0063952915741427
16.058603849468543,0.0054033438900094
16.087331226659003,0.0057529184602458
16.116058603849467,0.0056104505618491
16.14478598103993,0.0050245477879485
16.17351335823039,0.0045819064571868
16.202240735420855,0.0049009297346858
16.23096811261132,0.0052533336040585
16.25969548980178,0.0048635351736838
16.288422866992242,0.0055317462625291
16.317150244182706,0.004923250642541
16.345877621373166,0.0037488005171158
16.37460499856363,0.004885394884367
16.403332375754093,0.0048718225368017
16.432059752944554,0.0039851255595858
16.460787130135017,0.0040493645414629
16.48951450732548,0.0041192036848227
16.51824188451594,0.0041246414981375
16.546969261706405,0.0042295014782279
16.57569663889687,0.0043299050567703
16.60442401608733,0.0043085799525796
16.633151393277792,0.0043365518178694
16.661878770468256,0.0043723612644478
16.690606147658716,0.0043116802318242
16.71933352484918,0.0042118285779434
16.748060902039644,0.0042104146859987
16.776788279230104,0.0042122141149691
16.805515656420567,0.003938234364862
16.83424303361103,0.0041422206913254
16.86297041080149,0.0044078979895098
16.891697787991955,0.0041074371142475
16.92042516518242,0.0041884636937164
16.94915254237288,0.004280036033737
16.977879919563343,0.0044088596728581
17.006607296753806,0.0043201436821164
17.035334673944266,0.0045725824183258
17.06406205113473,0.0043497122969759
17.092789428325194,0.0042489029542998
17.121516805515654,0.0043101238633124
17.150244182706118,0.0043014334822186
17.17897155989658,0.0041262318974341
17.20769893708704,0.0041889253987919
17.236426314277505,0.004059599427256
17.26515369146797,0.0036594229029115
17.29388106865843,0.0040783929674785
17.322608445848893,0.0040778459307231
17.351335823039356,0.0032978226977731
17.380063200229817,0.0036435114036208
17.40879057742028,0.0052715024143308
17.437517954610744,0.0044135021779134
17.466245331801204,0.0044728586010046
17.494972708991668,0.0046682933980312
17.52370008618213,0.0045761889832549
17.55242746337259,0.0047040227575268
17.581154840563055,0.0044104242279868
17.60988221775352,0.0041225988473548
17.63860959494398,0.004492239912764
17.667336972134443,0.0039111221484939
17.696064349324907,0.0040925102948554
17.724791726515367,0.0042204642717881
17.75351910370583,0.0042718355904122
17.782246480896294,0.0041436281685906
17.810973858086754,0.0038019961474309
17.839701235277218,0.0039815145100275
17.86842861246768,0.0039261979241968
17.897155989658142,0.003791524706945
17.925883366848606,0.003808513195867
17.95461074403907,0.0036657312424174
17.98333812122953,0.0037407242774466
18.012065498419993,0.004066109995846
18.040792875610457,0.0039088597899805
18.069520252800917,0.0039278172251471
18.09824762999138,0.0039614909483643
18.126975007181844,0.0042932566485901
18.155702384372304,0.0042289022633233
18.184429761562768,0.0040204660958164
18.213157138753232,0.0040915600551729
18.241884515943692,0.0042308635912083
18.270611893134156,0.0039240573382271
18.29933927032462,0.003758460817942
18.32806664751508,0.004237814726199
18.356794024705543,0.0037155042271091
18.385521401896007,0.0039053639907144
18.414248779086467,0.0040423121817585
18.44297615627693,0.0041715045596981
18.47170353346739,0.0043566919790163
18.500430910657855,0.0044297478845595
18.52915828784832,0.0044488697248078
18.557885665038786,0.0045779299061361
18.58661304222924,0.0045732758973272
18.615340419419702,0.0045196442399888
18.64406779661017,0.0045791688615679
18.67279517380063,0.0045762823719418
18.701522550991093,0.0043246839554358
18.730249928181557,0.0041673229739439
18.758977305372017,0.0043208895512938
18.78770468256248,0.0041769599132038
18.816432059752945,0.004006838400859
18.845159436943405,0.0040181607778356
18.87388681413387,0.0039515833114677
18.902614191324332,0.0037812282094907
18.931341568514792,0.0037496719069122
18.960068945705256,0.0039716794959722
18.98879632289572,0.0039543279191693
19.01752370008618,0.0038590400253695
19.046251077276644,0.0039242749069209
19.074978454467107,0.0041054124083274
19.103705831657567,0.0041664186817573
19.13243320884803,0.0040939826240069
19.161160586038495,0.004122292796346
19.189887963228955,0.0040542940247258
19.21861534041942,0.0040655699929709
19.24734271760988,0.004074069725427
19.276070094800343,0.0041601919648414
19.30479747199081,0.0042523257699045
19.33352484918127,0.002393859627327
19.36225222637173,0.003960428328436
19.390979603562194,0.0044157965507896
19.419706980752657,0.0043529910517696
19.44843435794312,0.0044657596885169
19.47716173513358,0.0041764573346913
19.505889112324045,0.0050689953616233
19.534616489514505,0.0048857261910345
19.56334386670497,0.0046829575509556
19.592071243895433,0.0048803757947879
19.620798621085893,0.0047847615449942
19.649525998276356,0.0031476005237423
19.67825337546682,0.0033455370046443
19.70698075265728,0.0167260260776171
19.735708129847744,0.0109254533061481
19.764435507038208,0.0119585749751262
19.793162884228668,0.014059079464445
19.82189026141913,0.0136640941857976
19.850617638609595,0.0133687444670253
19.879345015800055,0.0136198415042016
19.90807239299052,0.0116084270119562
19.936799770180983,0.0097683328069149
19.965527147371443,0.0082221393156762
19.994254524561907,0.0072718813795805
20.02298190175237,0.0047600486505502
20.05170927894283,0.0052775524542203
20.080436656133298,0.0062615617237512
20.10916403332376,0.0039955814572621
20.137891410514214,0.0044814878596947
20.16661878770468,0.0045394720862719
20.195346164895145,0.0042923211655084
20.224073542085605,0.0045724666952917
20.25280091927607,0.0045759907183236
20.281528296466533,0.0047066088569742
20.310255673656993,0.0046507663836615
20.338983050847457,0.0045557931542494
20.36771042803792,0.0045584998921476
20.39643780522838,0.0045219654311058
20.425165182418844,0.0045370675349831
20.453892559609308,0.0047467997436261
20.482619936799768,0.0042940048774886
20.511347313990232,0.0041492516228088
20.540074691180696,0.0043465356190605
20.568802068371156,0.0041660772148876
20.59752944556162,0.0039622456869044
20.62625682275208,0.0039777725438512
20.654984199942543,0.0039452779385789
20.683711577133007,0.0041072903202644
20.712438954323467,0.0042147518170947
20.74116633151393,0.0041429663248952
20.76989370870439,0.0041448585066842
20.798621085894855,0.0039798113481116
20.82734846308532,0.0039861809477572
20.856075840275786,0.0040902217345108
20.88480321746624,0.004097663017041
20.913530594656702,0.0040627895816871
20.94225797184717,0.0039307716857349
20.97098534903763,0.0039359541563627
20.999712726228093,0.0041347453293697
21.028440103418557,0.0040104681329119
21.057167480609017,0.0040808311453052
21.08589485779948,0.0039205751561159
21.114622234989945,0.0037669880376288
21.143349612180405,0.00387457813242
21.17207698937087,0.0038515582014676
21.200804366561332,0.0037942765437817
21.229531743751792,0.0038703700693204
21.258259120942256,0.0040103371589332
21.28698649813272,0.004063109829716
21.31571387532318,0.003941359910155
21.344441252513644,0.0039205848217232
21.373168629704107,0.0040897156698874
21.401896006894567,0.0039963949034692
21.43062338408503,0.0040929488765177
21.459350761275495,0.0038815410424971
21.488078138465955,0.0038198556666687
21.51680551565642,0.0038252278200604
21.54553289284688,0.0038244127166256
21.574260270037342,0.0038278861016725
21.60298764722781,0.0038359355762441
21.63171502441827,0.0038916544112654
21.66044240160873,0.0040246692341088
21.689169778799194,0.0042982145494585
21.717897155989657,0.0047947770850615
21.74662453318012,0.0053776731439572
21.77535191037058,0.0053588544007982
21.804079287561045,0.0052445310489674
21.832806664751505,0.0051661275433729
21.86153404194197,0.005207057939122
21.890261419132433,0.0047915833027855
21.918988796322893,0.004942320861108
21.947716173513356,0.0042983287641322
21.97644355070382,0.0038616758164084
22.00517092789428,0.0039741069093283
22.033898305084744,0.0039599961241395
22.062625682275208,0.0038205868381948
22.091353059465668,0.0038351125313192
22.12008043665613,0.0038965861509626
22.148807813846595,0.0039156098257121
22.177535191037055,0.0039047936423578
22.20626256822752,0.004013639561186
22.234989945417983,0.004080886492834
22.263717322608443,0.0039688222160898
22.292444699798907,0.0040478898054691
22.32117207698937,0.0041805939447471
22.34989945417983,0.0038922644100225
22.378626831370298,0.003999760582671
22.40735420856076,0.0038242896397997
22.436081585751214,0.0040591113062621
22.46480896294168,0.0038384664902761
22.493536340132145,0.0036126881822921
22.522263717322605,0.003773206560499
22.55099109451307,0.0037540271344889
22.579718471703533,0.0036270069403749
22.608445848893993,0.0037071500905911
22.637173226084457,0.003700719452641
22.66590060327492,0.0037119966562651
22.69462798046538,0.0039520731725818
22.723355357655844,0.0041744510195563
22.752082734846308,0.0042237045131478
22.780810112036768,0.0043110316441476
22.809537489227232,0.0043886697425523
22.838264866417695,0.0043967982672451
22.866992243608156,0.0044572798552315
22.89571962079862,0.0043242165667488
22.924446997989083,0.0042329888199638
22.953174375179543,0.0041255458271437
22.981901752370007,0.0041726111947724
23.01062912956047,0.0040788699206019
23.03935650675093,0.0038930629745059
23.06808388394139,0.0039202040098409
23.096811261131855,0.003679862812575
23.12553863832232,0.0038485352699884
23.154266015512786,0.0044310260734799
23.18299339270325,0.0040951776117031
23.211720769893702,0.0042472129773094
23.24044814708417,0.0043273337215045
23.269175524274633,0.0043392256388335
23.297902901465093,0.0039112255282108
23.326630278655557,0.0054819255815926
23.35535765584602,0.004942791168526
23.38408503303648,0.0021028083086582
23.412812410226945,0.0044673727724192
23.44153978741741,0.0041367544976152
23.47026716460787,0.0040657542517579
23.498994541798332,0.0040180809175938
23.527721918988796,0.0036329248880993
23.556449296179256,0.0039422639666859
23.58517667336972,0.0066713872280612
23.613904050560183,0.0133873275866865
23.642631427750644,0.0156017016775077
23.671358804941107,0.0164457202225812
23.70008618213157,0.0170168148673578
23.72881355932203,0.0169586454018223
23.757540936512495,0.0192525029800544
23.78626831370296,0.0134208725513844
23.81499569089342,0.0114197368499216
23.84372306808388,0.0110643152262198
23.872450445274342,0.0071844567316715
23.90117782246481,0.0054965410432288
23.92990519965527,0.0047345044907612
23.958632576845737,0.0044140099017385
23.987359954036194,0.0044656905667239
24.016087331226657,0.0042000281324709
24.04481470841712,0.0041449489531179
24.07354208560758,0.0042455448904448
24.102269462798045,0.0043067906993849
24.13099683998851,0.004316698658925
24.15972421717897,0.0042004254179479
24.188451594369432,0.0040591138087382
24.217178971559896,0.0041145475082576
24.245906348750356,0.004085850323236
24.27463372594082,0.0042396121748678
24.303361103131284,0.0039331108058255
24.332088480321744,0.0040954579115387
24.360815857512208,0.0041008213410854
24.38954323470267,0.0040236020134499
24.41827061189313,0.0040725432262491
24.446997989083595,0.0039902776886077
24.47572536627406,0.0037293767129942
24.50445274346452,0.0036367522819787
24.533180120654983,0.0036518461970066
24.561907497845446,0.003586029486751
24.590634875035907,0.0035625483196108
24.61936225222637,0.0036811840621599
24.64808962941683,0.0037177083406683
24.676817006607298,0.0037377184518971
24.70554438379776,0.003898477550643
24.73427176098822,0.0037585337551309
24.76299913817868,0.0032405307772013
24.791726515369145,0.0041322898507999
24.82045389255961,0.003858617450941
24.84918126975007,0.0039589020821014
24.877908646940533,0.00398106325759
24.906636024130997,0.0039671154718302
24.935363401321457,0.0038673567736065
24.96409077851192,0.0038657059807588
24.992818155702384,0.0041595186866436
25.021545532892844,0.0041228397094811
25.050272910083308,0.004018050337807
25.07900028727377,0.0039423925912046
25.10772766446423,0.0039185711768974
25.136455041654695,0.0039328157976626
25.16518241884516,0.0039298336871821
25.19390979603562,0.0040112261107503
25.222637173226083,0.0037581887328389
25.251364550416547,0.0034416109241363
25.280091927607007,0.0041233119875963
25.30881930479747,0.0031412103587421
25.337546681987934,0.0035690338006229
25.36627405917839,0.0035913074476412
25.395001436368855,0.0035366739261495
25.42372881355932,0.0032382302557878
25.452456190749785,0.0038643935846449
25.48118356794025,0.0038268495706734
25.50991094513071,0.003940224853818
25.53863832232117,0.0039875133194516
25.567365699511633,0.0040343781752961
25.596093076702097,0.0039698339600682
25.624820453892557,0.0039546106838131
25.65354783108302,0.0038088054742589
25.682275208273484,0.0038333147543381
25.711002585463945,0.0038042192710349
25.73972996265441,0.0037719379894819
25.768457339844872,0.0038602988531455
25.797184717035332,0.0038748718881848
25.825912094225796,0.0038049998808941
25.85463947141626,0.0038434870535563
25.88336684860672,0.0039119866784571
25.912094225797183,0.0038120733875903
25.940821602987647,0.0030489066903102
25.969548980178107,0.0043779485570383
25.99827635736857,0.0042971838959678
26.027003734559035,0.0036724671565105
26.055731111749495,0.0039375795465563
26.08445848893996,0.0039331534628955
26.113185866130426,0.003889873545093
26.14191324332088,0.0039943834756157
26.170640620511342,0.0039123690550797
26.19936799770181,0.003826984019172
26.22809537489227,0.0039033584796092
26.256822752082737,0.0039111417782368
26.285550129273197,0.0038332239694786
26.314277506463657,0.0039038399326975
26.34300488365412,0.0040365291606406
26.371732260844585,0.0039697234778674
26.400459638035045,0.0037078408647908
26.42918701522551,0.0037853710729381
26.457914392415972,0.0039463037720147
26.486641769606432,0.0038372372388717
26.515369146796896,0.0037533918581989
26.544096523987356,0.0035894208323195
26.57282390117782,0.003691725081876
26.601551278368284,0.0038989268357026
26.630278655558744,0.0041291970924527
26.659006032749208,0.0019485592577652
26.68773340993967,0.0001286364461711
26.71646078713013,0.0033273158551773
26.745188164320595,0.0036043381214754
26.77391554151106,0.0037371436197605
26.80264291870152,0.0037594867215395
26.831370295891983,0.0038416598097627
26.860097673082446,0.0039669702971679
26.888825050272903,0.0040456470358662
26.91755242746337,0.0046077087365864
26.94627980465383,0.0038687144784723
26.975007181844298,0.0040556304772332
27.00373455903476,0.004252359361147
27.03246193622522,0.0042193053050544
27.06118931341568,0.0040312492094058
27.089916690606145,0.0038951135033454
27.11864406779661,0.0044344810818831
27.14737144498707,0.0042384729465407
27.176098822177533,0.0041444591219917
27.204826199367997,0.0042990239139923
27.233553576558457,0.0041100025455192
27.26228095374892,0.0040310768864506
27.291008330939384,0.0041446217614568
27.319735708129844,0.0038221970730194
27.348463085320308,0.0034089390801105
27.37719046251077,0.0036660579078547
27.40591783970123,0.0037061792353762
27.434645216891695,0.0035965114471356
27.46337259408216,0.0037251408212002
27.49209997127262,0.0037118012911474
27.520827348463083,0.0036663026621021
27.549554725653547,0.0037714826834647
27.578282102844007,0.0039828162464975
27.60700948003447,0.0036606627209566
27.635736857224934,0.0033169805403493
27.66446423441539,0.006028413868941
27.693191611605855,0.009882760292046
27.72191898879632,0.0107410225406509
27.750646365986785,0.0150084520987744
27.77937374317725,0.0163125440785998
27.80810112036771,0.0158055909399547
27.83682849755817,0.0164305119791235
27.865555874748633,0.016920506418383
27.894283251939097,0.0134941664094705
27.923010629129557,0.0098490976317621
27.95173800632002,0.0120381010628305
27.980465383510484,0.0024134993690102
28.009192760700945,0.0047453651592957
28.03792013789141,0.0042633343884836
28.066647515081872,0.0043109920204546
28.095374892272332,0.0040776829578349
28.124102269462796,0.0037394088817794
28.15282964665326,0.0039829956724442
28.18155702384372,0.0032285439260017
28.210284401034183,0.0037784199984595
28.239011778224647,0.004145012223172
28.267739155415107,0.0040020906355641
28.29646653260557,0.004066802417014
28.325193909796035,0.0039804519673665
28.353921286986495,0.0040119615703848
28.38264866417696,0.0040511069337515
28.411376041367426,0.0040846399513069
28.44010341855788,0.0040368907428995
28.468830795748342,0.00375237760064
28.49755817293881,0.0039096475034637
28.52628555012927,0.0038361384213003
28.555012927319737,0.0038443034328965
28.583740304510197,0.003871169178707
28.612467681700657,0.0039534408394122
28.64119505889112,0.0040613209774258
28.669922436081585,0.0040614619495857
28.698649813272045,0.0040028396775898
28.72737719046251,0.0039071158020908
28.756104567652972,0.0040102229217185
28.784831944843432,0.0035474111760001
28.813559322033896,0.0030607221958989
28.84228669922436,0.0058248258792181
28.87101407641482,0.0024115464930572
28.899741453605284,0.0021712776224067
28.928468830795747,0.0040386392946356
28.957196207986208,0.0038963636991064
28.98592358517667,0.0037873201438059
29.014650962367135,0.0038990672930033
29.043378339557595,0.0040137740917548
29.07210571674806,0.0038858676874661
29.10083309393852,0.0038756591325209
29.129560471128983,0.0037692775648223
29.158287848319446,0.0035299516107649
29.18701522550991,0.0037925014037814
29.21574260270037,0.0038609341687286
29.24446997989083,0.0037612336096895
29.273197357081298,0.0038916526968279
29.30192473427176,0.0040109928899886
29.33065211146222,0.0039280848648745
29.359379488652685,0.0039364002317809
29.388106865843145,0.00400278480393
29.41683424303361,0.0038968806769893
29.445561620224073,0.0037628542782156
29.474288997414533,0.0039437692792089
29.503016374604996,0.003776540584043
29.53174375179546,0.0037856317950606
29.56047112898592,0.0039607702285887
29.589198506176384,0.0041668299214356
29.617925883366848,0.004022038395351
29.646653260557308,0.0039183144940484
29.67538063774777,0.0038952169959463
29.704108014938235,0.0040226007483636
29.732835392128695,0.004089315730282
29.76156276931916,0.0036288563876193
29.790290146509623,0.0039902869496182
29.819017523700083,0.0040096436215462
29.847744900890547,0.0038941066329206
29.87647227808101,0.0039696504719969
29.90519965527147,0.004085874921639
29.933927032461938,0.0041060039359218
29.9626544096524,0.0040220952916462
29.991381786842854,0.0040790158009536
30.02010916403332,0.0041145601373127
30.048836541223785,0.0039678492587634
30.07756391841425,0.003895556891665
30.10629129560471,0.0040070785361437
30.135018672795173,0.0040491700234527
30.163746049985633,0.0040274042862156
30.192473427176097,0.0040760158372846
30.22120080436656,0.0041327788473611
30.24992818155702,0.0040772579866793
30.278655558747484,0.0040480041301614
30.307382935937948,0.0041829492728575
30.336110313128408,0.0039779932178885
30.364837690318872,0.0036663171504065
30.393565067509336,0.003945700796174
30.422292444699796,0.0038716337931621
30.45101982189026,0.0037914065802428
30.479747199080723,0.0038163073244931
30.508474576271183,0.0037984369623265
30.537201953461647,0.0037514249112548
30.56592933065211,0.0037046934517687
30.59465670784257,0.0037112552693464
30.623384085033035,0.003711000249703
30.6521114622235,0.0038505326339103
30.68083883941396,0.0038938690742323
30.709566216604426,0.0037820379370995
30.73829359379489,0.003708129060369
30.767020970985342,0.0040404775949319
30.79574834817581,0.003831811076096
30.824475725366273,0.0037194027790318
30.853203102556733,0.0040818956411909
30.881930479747197,0.0042264003171139
30.91065785693766,0.0038510117669788
30.93938523412812,0.0041870288604181
30.968112611318585,0.0041901965315837
30.99683998850905,0.0042645291824635
31.02556736569951,0.0043691536703435
31.054294742889972,0.0043460788751612
31.083022120080436,0.0042187212951573
31.111749497270896,0.0041479655690333
31.14047687446136,0.0042081099417396
31.169204251651824,0.0041281047982676
31.197931628842284,0.0041236518942384
31.226659006032747,0.0040148465875197
31.25538638322321,0.0036953559434337
31.28411376041367,0.0037780387635813
31.312841137604135,0.0038431208494928
31.3415685147946,0.0038614790078354
31.37029589198506,0.0037034560867524
31.39902326917552,0.0036931557244243
31.427750646365983,0.0038117482388812
31.456478023556446,0.0038193305757436
31.48520540074691,0.0039438504845085
31.513932777937377,0.0035960425427486
31.54266015512783,0.0037325117552197
31.571387532318298,0.0037773481409658
31.60011490950876,0.003737350785264
31.62884228669922,0.0037832961361376
31.657569663889685,0.0037542754790419
31.68629704108015,0.0037747514946031
31.71502441827061,0.0036442851107601
31.743751795461073,0.0037901567483463
31.772479172651536,0.0040793535353866
31.801206549841996,0.0039676856316789
31.82993392703246,0.0042299619356837
31.858661304222924,0.0068427447536425
31.887388681413384,0.0139279907746505
31.916116058603848,0.0165877021224081
31.94484343579431,0.017324474278727
31.97357081298477,0.0177472095833904
32.00229819017523,0.0175661026363186
32.031025567365695,0.0174772923886848
32.05975294455616,0.0179906513502771
32.08848032174662,0.0165466008475321
32.11720769893709,0.010892589487242
32.14593507612755,0.0066887148094951
32.17466245331801,0.0056143230400698
32.20338983050847,0.0047233776788755
32.232117207698934,0.0047319957976807
32.2608445848894,0.0051235721643271
32.28957196207986,0.0036219033384352
32.318299339270325,0.0037792367361401
32.34702671646078,0.0041199626135045
32.375754093651246,0.004087906490436
32.40448147084171,0.0040176481065812
32.43320884803217,0.0041543152912622
32.46193622522264,0.0041877806076688
32.4906636024131,0.003613023119801
32.51939097960356,0.0040320717899682
32.54811835679402,0.0049106954480919
32.576845733984484,0.002386913739811
32.60557311117495,0.0039939214016966
32.63430048836541,0.0042852046393147
32.663027865555875,0.0037599852362542
32.69175524274633,0.0039665425831613
32.720482619936796,0.0038266893833689
32.74920999712726,0.0040063729019671
32.77793737431772,0.0040442835525016
32.80666475150819,0.0040158535677462
32.83539212869865,0.0041189585407461
32.86411950588911,0.0041227842472122
32.89284688307957,0.003976817655705
32.921574260270035,0.0039249760043175
32.9503016374605,0.0039054470045323
32.97902901465096,0.0038938004011946
33.007756391841426,0.0036903518543337
33.03648376903188,0.0037811602715701
33.065211146222346,0.0040399811905756
33.09393852341281,0.0040464653057083
33.12266590060327,0.0038362412594624
33.15139327779374,0.00395958834127
33.1801206549842,0.0039884576824396
33.20884803217466,0.0039592309648607
33.23757540936512,0.0047947027476755
33.266302786555585,0.0050203746700778
33.29503016374605,0.0047004149122817
33.32375754093651,0.0047749916112752
33.352484918126976,0.0048887344670873
33.38121229531743,0.0048363948873342
33.409939672507896,0.0047987517530327
33.43866704969836,0.0044984603846101
33.46739442688882,0.0039799013025502
33.49612180407929,0.0039672645875791
33.52484918126975,0.0039196537841036
33.55357655846021,0.003846981926275
33.58230393565067,0.003811345010954
33.611031312841135,0.0038294190321455
33.6397586900316,0.003828996694805
33.66848606722206,0.0037702363798141
33.697213444412526,0.0037067713393655
33.72594082160298,0.0037576511202491
33.754668198793446,0.003913652806281
33.78339557598391,0.0038943598326429
33.812122953174374,0.0038134273928808
33.84085033036484,0.0039146149238668
33.8695777075553,0.0037698144316083
33.89830508474576,0.0037724058461963
33.92703246193622,0.0038953936500976
33.955759839126685,0.0039672748607495
33.98448721631715,0.003889681517035
34.01321459350761,0.0038767187076944
34.041941970698076,0.0039067961167865
34.07066934788853,0.0038819287331848
34.099396725078996,0.0038863276061999
34.12812410226946,0.0038902312668401
34.156851479459924,0.003848278141048
34.18557885665039,0.0036926898189175
34.21430623384085,0.0042965615483709
34.24303361103131,0.0054974419386341
34.27176098822177,0.0055422939545751
34.300488365412235,0.0055311478087736
34.3292157426027,0.0056038210238315
34.35794311979316,0.0056907562793145
34.386670496983626,0.0057848183041662
34.41539787417408,0.0058054843468345
34.44412525136455,0.0054234057563234
34.47285262855501,0.0042680785793483
34.501580005745474,0.0038936917887099
34.53030738293594,0.0043866034734237
34.5590347601264,0.0037457538557698
34.58776213731686,0.0035893477779257
34.61648951450732,0.004053854642172
34.645216891697785,0.0039410133639345
34.67394426888825,0.0038291410275012
34.70267164607871,0.003907230832783
34.73139902326918,0.0036187396767184
34.76012640045963,0.0041807795398879
34.7888537776501,0.0040534707309998
34.81758115484056,0.0038302992400632
34.846308532031024,0.0037682026044239
34.87503590922149,0.0037436085774322
34.90376328641195,0.0036052959881626
34.93249066360241,0.0037985798047119
34.96121804079287,0.0040599685652218
34.989945417983336,0.0036053950598064
35.0186727951738,0.0037305789681539
35.04740017236426,0.0037055403825136
35.07612754955473,0.0038330583977665
35.10485492674518,0.0038483567324508
35.13358230393565,0.0038179806837102
35.16230968112611,0.0037710735744429
35.191037058316574,0.0037084267716231
35.21976443550704,0.0036272550191226
35.2484918126975,0.0037832902621951
35.27721918988796,0.003869016410896
35.30594656707842,0.0038983492749948
35.334673944268886,0.0039792661409643
35.36340132145935,0.0038624457751128
35.39212869864981,0.0040282792756866
35.42085607584027,0.0038755359156269
35.44958345303073,0.0038988323088063
35.4783108302212,0.0041915123545557
35.50703820741166,0.00395704111559
35.535765584602125,0.0041810800782554
35.56449296179259,0.0038930951585189
35.593220338983045,0.0040783706481103
35.62194771617351,0.0040924968688378
35.65067509336397,0.0044972176809098
35.679402470554436,0.0068737819857076
35.7081298477449,0.0113915555923513
35.73685722493536,0.0154222109524717
35.76558460212582,0.0166182303179774
35.794311979316284,0.0164302489029138
35.82303935650675,0.0165526712255676
35.85176673369721,0.0158638459001247
35.880494110887675,0.0192944042541813
35.90922148807814,0.0171489922281612
35.937948865268595,0.011443252884974
35.96667624245906,0.0018082884785052
35.99540361964952,0.0024788358711037
36.024130996839986,0.0053215245835591
36.05285837403045,0.0037101546821968
36.08158575122091,0.0038236738699197
36.11031312841137,0.0038986797190941
36.139040505601834,0.0038801737715709
36.1677678827923,0.0043203076984005
36.19649525998276,0.0036829769841503
36.225222637173225,0.0038904962847208
36.25395001436369,0.003982039094676
36.282677391554145,0.0038297870805687
36.31140476874461,0.0040241695741664
36.34013214593507,0.0045131563564928
36.368859523125536,0.0030333453361937
36.397586900316,0.0032705346169032
36.426314277506464,0.0035768550548898
36.45504165469692,0.003804402298496
36.483769031887384,0.0038399989571713
36.51249640907785,0.0037079343212959
36.54122378626831,0.0036973647318951
36.569951163458775,0.0036394572768838
36.59867854064924,0.0037202682963177
36.627405917839695,0.0039370830946213
36.65613329503016,0.0038262246783118
36.68486067222062,0.0039689994450954
36.713588049411086,0.0039991018885553
36.74231542660155,0.0041692392828134
36.771042803792014,0.0044261303088721
36.79977018098247,0.0041973447897063
36.828497558172934,0.0040239659230858
36.8572249353634,0.0042608990140247
36.88595231255386,0.0039900743944857
36.914679689744325,0.0039079005937118
36.94340706693479,0.0038551351326154
36.972134444125246,0.0036964242754735
37.00086182131571,0.0036903528670555
37.02958919850617,0.0037045769647232
37.05831657569664,0.0036946890716217
37.0870439528871,0.0037294805826891
37.11577133007757,0.0037935841454011
37.14449870726802,0.0038119831016612
37.17322608445848,0.00372196439478
37.20195346164895,0.0035821868482919
37.23068083883941,0.0037003411266386
37.259408216029875,0.0037468200772113
37.28813559322034,0.0035813068923744
37.3168629704108,0.0036463924681761
37.34559034760126,0.0037177653959558
37.37431772479172,0.0037256069927091
37.40304510198219,0.0038194035763884
37.43177247917265,0.0039502610717875
37.460499856363114,0.0039267773232727
37.48922723355357,0.0037989363916391
37.517954610744034,0.0040408258961486
37.5466819879345,0.0044434427545142
37.57540936512496,0.0040999170092696
37.604136742315426,0.0044047128439021
37.63286411950589,0.0044190828449533
37.661591496696346,0.0042681572444864
37.69031887388681,0.0042047291203182
37.71904625107727,0.0045526596123301
37.74777362826774,0.0038748624916461
37.7765010054582,0.0038380244092235
37.805228382648664,0.0041701046451709
37.83395575983912,0.0038929561680431
37.862683137029585,0.0039151269976281
37.89141051422005,0.0038803761343592
37.92013789141051,0.0038301994687338
37.948865268600976,0.003846340146425
37.97759264579144,0.0038867921496438
38.006320022981896,0.0039135192156874
38.03504740017236,0.0038464434184602
38.06377477736282,0.003789430845399
38.09250215455329,0.0039036752996151
38.12122953174375,0.0038375469077184
38.149956908934215,0.0038741099918543
38.17868428612467,0.0039281282024912
38.207411663315135,0.003915743964198
38.2361390405056,0.0039131303328104
38.26486641769606,0.0039456524771531
38.293593794886526,0.0039989637806851
38.32232117207699,0.0040902857982429
38.351048549267446,0.0042554599213699
38.37977592645791,0.0043446669546578
38.408503303648374,0.0040372347744043
38.43723068083884,0.0041300978994581
38.4659580580293,0.0042922460437479
38.494685435219765,0.0041023544680443
38.52341281241022,0.0039495033245268
38.552140189600685,0.0040616445072501
38.58086756679115,0.0037171148419012
38.60959494398161,0.0039134366051648
38.63832232117208,0.0041596177986426
38.66704969836254,0.0040515107732857
38.69577707555299,0.0040842683379203
38.72450445274346,0.0040720225133207
38.75323182993392,0.0041767718760823
38.78195920712439,0.0041103335133508
38.81068658431485,0.0039100955099549
38.839413961505315,0.0038560628263675
38.86814133869577,0.0041194903205043
38.896868715886235,0.0038928169410905
38.9255960930767,0.0037141096831905
38.95432347026716,0.0041701857627411
38.983050847457626,0.0052832977114311
39.01177822464809,0.0057058731030846
39.04050560183855,0.0053118826040462
39.06923297902901,0.0054022179295695
39.097960356219474,0.0054887646265557
39.12668773340994,0.0053930803738364
39.1554151106004,0.0055435924641289
39.184142487790865,0.004655679475358
39.21286986498132,0.0036278754072038
39.241597242171785,0.0034498807842867
39.27032461936225,0.0034621094505264
39.29905199655271,0.0033230514392351
39.32777937374318,0.0036965270192963
39.35650675093364,0.0036815388708571
39.3852341281241,0.0037204675906554
39.41396150531456,0.0037445682381707
39.442688882505024,0.0037922043583573
39.47141625969549,0.004176376986209
39.50014363688595,0.0039803635900741
39.528871014076415,0.0038919566754772
39.55759839126687,0.0038203740470591
39.586325768457336,0.0038875431851666
39.6150531456478,0.0038804519666842
39.64378052283826,0.0039870227004273
39.67250790002873,0.0041023131483333
39.70123527721919,0.0032246574341415
39.72996265440965,0.00331566945498
39.75869003160011,0.008111968518359
39.787417408790574,0.0120944223057141
39.81614478598104,0.0157326293209332
39.8448721631715,0.0215252119289719
39.873599540361965,0.0201768345766563
39.90232691755242,0.0208166646059394
39.931054294742886,0.021219238028018
39.95978167193335,0.0211752126654291
39.98850904912381,0.019384432374712
40.01723642631428,0.0216833970617716
40.04596380350474,0.0195148905947055
40.0746911806952,0.0060519809610198
40.10341855788566,0.0075024049529228
40.132145935076124,0.0063733014501876
40.16087331226659,0.0065292154572355
40.18960068945705,0.0062804594272403
40.21832806664752,0.0035943424860181
40.24705544383797,0.0078083443817155
40.27578282102843,0.0116797794070057
40.3045101982189,0.0057579541368345324
40.33323757540936,0.0038662766433983
40.36196495259983,0.0037427463026764
40.39069232979029,0.0038562356001932
40.41941970698075,0.0036664874231277
40.44814708417121,0.0038725502229577
40.476874461361675,0.0039822615170421
40.50560183855214,0.0037710719630446
40.5343292157426,0.0036413420391147
40.563056592933066,0.0037213232893603
40.59178397012352,0.0034994872352017
40.620511347313986,0.0035068867485388
40.64923872450445,0.0035808315993769
40.67796610169491,0.0036823656643187
40.70669347888538,0.003871786600101
40.73542085607584,0.0039550507630652
40.7641482332663,0.0039452722554867
40.79287561045676,0.0039493439151569
40.821602987647225,0.0038752155789011
40.85033036483769,0.0038571698132481
40.87905774202815,0.0038044855157104
40.907785119218616,0.0037555180302815
40.93651249640907,0.0038074818879077
40.965239873599536,0.0038821196710781
40.99396725079,0.0039222587624989
41.022694627980464,0.0039447619697123
41.05142200517093,0.0040408818962712
41.08014938236139,0.0040468151751796
41.10887675955185,0.0042475176764238
41.13760413674231,0.0042021447342157
41.166331513932775,0.0041170902844454
41.19505889112324,0.0040335022392324
41.2237862683137,0.0039112888512647
41.25251364550416,0.0038425598353906
41.28124102269462,0.0037839120408405
41.309968399885086,0.0038728921668941
41.33869577707555,0.0038164848487664
41.367423154266014,0.0037425974429109
41.39615053145648,0.0034726671334358
41.424877908646934,0.0044508072221461
41.4536052858374,0.0043625753086364
41.48233266302786,0.0040899489297521
41.511060040218325,0.0042093897122182
41.53978741740879,0.0043497146808857
41.56851479459925,0.0041643382018311
41.59724217178971,0.0039911227567213
41.62596954898017,0.003989771571825
41.65469692617064,0.0038833452309776
41.6834243033611,0.0036582786180802
41.71215168055157,0.0037538457276015
41.74087905774203,0.0039307451346457
41.76960643493248,0.0039989832318145
41.79833381212295,0.004038686643962
41.82706118931341,0.0042852369638882
41.855788566503875,0.004057581097039
41.88451594369434,0.0041335650000809
41.9132433208848,0.0039118232920313
41.94197069807526,0.0039652006736648
41.97069807526572,0.0038094117324589
41.99942545245619,0.0038629510127979
42.02815282964665,0.0038495919172385
42.056880206837114,0.0039546201365589
42.08560758402758,0.0040813710776037
42.114334961218034,0.0041169540514269
42.1430623384085,0.0040830216378197
42.17178971559896,0.0042982999073449
42.200517092789426,0.0045116629227446
42.22924446997989,0.0045461413588667
42.25797184717035,0.0044709740542038
42.28669922436081,0.0044122220756542
42.31542660155127,0.0044465308176487
42.34415397874174,0.004509313050563
42.3728813559322,0.0045628751410737
42.401608733122664,0.0045232375981653
42.43033611031313,0.0041436585712487
42.459063487503585,0.0041949771026208
42.48779086469405,0.0041640826030905
42.51651824188451,0.0040658866854246
42.545245619074976,0.0039982030151809
42.57397299626544,0.0038612859149475
42.6027003734559,0.0036514648113414
42.63142775064636,0.0038895000856171
42.66015512783682,0.0037037017801672
42.68888250502729,0.0038155507553704
42.71760988221775,0.0039300962951183
42.746337259408214,0.0036994272057972
42.77506463659868,0.0039343879312436
42.803792013789135,0.0038173249159256
42.8325193909796,0.0037556617154673
42.86124676817006,0.0037473798857397
42.889974145360526,0.0038417124886599
42.91870152255099,0.0037087094032758
42.94742889974145,0.0035995691208669
42.97615627693191,0.003963049623746
43.004883654122374,0.0038701818362813
43.03361103131284,0.0038897619165333
43.0623384085033,0.0043082454378836
43.091065785693765,0.0033981065659836
43.11979316288423,0.0035861834104326
43.148520540074685,0.0040866431076108
43.17724791726515,0.0038691519845299
43.20597529445561,0.0037092083347759
43.23470267164608,0.0038483894839372
43.26343004883654,0.0039366224581255
43.292157426027,0.0035642032283331
43.32088480321746,0.0037641699998816
43.34961218040792,0.0039030335151895
43.37833955759839,0.0038560547483388
43.40706693478885,0.003806406867815
43.435794311979315,0.0038330540708533
43.46452168916978,0.0038752601880025
43.493249066360235,0.0038369293881044
43.5219764435507,0.00387753075639
43.55070382074116,0.0039504773310521
43.579431197931626,0.0039303244543131
43.60815857512209,0.0038725327141637
43.636885952312554,0.0038989423217555
43.66561332950301,0.0039324410234155
43.694340706693474,0.0040344903298661
43.72306808388394,0.0034443126437614
43.7517954610744,0.003633235377282
43.780522838264865,0.0037745924085116
43.80925021545533,0.0037191302102249
43.837977592645785,0.0035633429663849
43.86670496983625,0.0039227377896688
43.89543234702671,0.0048934826005291
43.924159724217176,0.0014525238827263
43.95288710140764,0.0134935739023826
43.981614478598104,0.0174270873823793
44.01034185578856,0.0165178856930666
44.039069232979024,0.0198269346441172
44.06779661016949,0.0214058209659275
44.09652398735995,0.0215400862728399
44.125251364550415,0.021969173490129
44.15397874174088,0.0213618703599536
44.182706118931335,0.0201194769280845
44.2114334961218,0.0188709606862323
44.24016087331226,0.012851787364783
44.26888825050273,0.0071998778684613
44.29761562769319,0.0060022964667857
44.326343004883654,0.0053401863222169
44.35507038207411,0.0051052061228269
44.383797759264574,0.0048840894594846
44.41252513645504,0.0050555805070081
44.4412525136455,0.0044778887066228
44.469979890835965,0.0043515973640205
44.49870726802643,0.0044860966891734
44.527434645216886,0.0042345122655596
44.55616202240735,0.0042545231568778
44.58488939959781,0.0042743023324352
44.61361677678828,0.0042679002140368
44.64234415397874,0.0042665402106946
44.6710715311692,0.0041495610036047
44.69979890835966,0.0042689597044642
44.72852628555013,0.0044014870008758
44.75725366274059,0.0043663266650595
44.78598103993105,0.0043507518168168
44.81470841712152,0.0044137679725533
44.84343579431198,0.0043568151190932
44.87216317150243,0.0041442850660462
44.9008905486929,0.0040315748202052
44.92961792588336,0.0038912748562886
44.95834530307383,0.0037930922600574
44.98707268026429,0.0037510308454666
45.015800057454754,0.0038189265511607
45.04452743464521,0.0036735045972234
45.073254811835675,0.0035827233905552
45.10198218902614,0.0037691662967198
45.1307095662166,0.0037103376301498
45.159436943407066,0.003930016022342
45.18816432059753,0.003969533375098
45.216891697787986,0.0039127403067782
45.24561907497845,0.0040251844826325
45.27434645216891,0.0038900285912849
45.30307382935938,0.0037710797183404
45.33180120654984,0.0040341699327247
45.360528583740304,0.004014870153032
45.38925596093076,0.0038153200430122
45.417983338121225,0.0041001945599612
45.44671071531169,0.0040477437794524
45.47543809250215,0.003908883698397
45.504165469692616,0.0039096541355183
45.53289284688308,0.0041470300981548
45.561620224073536,0.0041033516611812
45.590347601264,0.0040922362791709
45.619074978454464,0.0042457767884502
45.64780235564493,0.0039957846889676
45.67652973283539,0.0038331705520077
45.705257110025855,0.0040660708371695
45.73398448721631,0.0038253249488846
45.762711864406775,0.0036109060055141
45.79143924159724,0.0042304245437227
45.8201666187877,0.0039976320231968
45.848893995978166,0.004189218273951
45.87762137316863,0.0041595599434559
45.906348750359086,0.0042614232170968
45.93507612754955,0.0042868014669115
45.963803504740014,0.0042451335459313
45.99253088193048,0.0045210708494791
46.02125825912094,0.0041593765919465
46.049985636311405,0.0042030161317214
46.07871301350186,0.0041385644279338
46.107440390692325,0.0041252737566517
46.13616776788279,0.004063383580287
46.16489514507325,0.0040493565825037
46.19362252226371,0.0040237700260644
46.22234989945418,0.0040693418415088
46.25107727664464,0.0039870490356148
46.2798046538351,0.0040441255562738
46.30853203102557,0.0039458067617198
46.33725940821603,0.003754553755417
46.36598678540649,0.0038174584530695
46.394714162596955,0.0039185409241204
46.42344153978741,0.0039465407165473
46.452168916977875,0.0039918352710696
46.48089629416834,0.0039850413756514
46.5096236713588,0.0039316831824501
46.538351048549266,0.0044217993287731
46.56707842573973,0.0041546882263394
46.59580580293019,0.0041401904728661
46.62453318012065,0.0040957754504825
46.653260557311114,0.0039019143261137
46.68198793450158,0.0039873539722793
46.71071531169204,0.0040982855642006
46.739442688882505,0.0039967858402915
46.76817006607296,0.0040879006805139
46.796897443263425,0.0035927370218897
46.82562482045389,0.0037340436843088
46.85435219764435,0.0038973145713765
46.88307957483482,0.0038807813499697
46.91180695202528,0.0038341721595801
46.94053432921574,0.0036159153182036
46.9692617064062,0.003772839571825
46.997989083596664,0.003880028087677
47.02671646078713,0.0036017062853789
47.05544383797759,0.0037057227444417
47.08417121516805,0.0040756311699996
47.11289859235851,0.0038872906487805
47.141625969548976,0.0040292840125766
47.17035334673944,0.0041369980612897
47.1990807239299,0.0038875703365534
47.22780810112037,0.0036956484254834
47.25653547831082,0.0039256968687186
47.28526285550129,0.0039377432666053
47.31399023269175,0.0038381363713188
47.342717609882214,0.0038407281545116
47.37144498707268,0.0039765619538741
47.40017236426314,0.0040546414063193
47.4288997414536,0.0040172352027264
47.45762711864406,0.0039351553645424
47.486354495834526,0.0043349875526746
47.51508187302499,0.0041736057993725
47.54380925021545,0.0044430052961421
47.57253662740592,0.004373971129114
47.60126400459637,0.0042728745297949
47.62999138178684,0.0042195630286665
47.6587187589773,0.0041822563221671
47.687446136167765,0.0041017960617309
47.71617351335823,0.0039474292597959
47.74490089054869,0.0039584292991925
47.77362826773915,0.0038810939891776
47.80235564492961,0.0037644862139375
47.83108302212008,0.0039719345911932
47.85981039931054,0.0040452466601266
47.888537776501,0.0035511074860645
47.91726515369147,0.0043906004525734
47.94599253088192,0.0059843697829108
47.97471990807239,0.0029686801584932
48.00344728526285,0.0172100561539573
48.032174662453315,0.0219244573862205
48.06090203964378,0.0163311947318574
48.08962941683424,0.0208387553734828
48.1183567940247,0.0241937104254827
48.14708417121516,0.0236506954232692
48.175811548405626,0.0235922793286599
48.20453892559609,0.0218046437492399
48.233266302786554,0.0195898323159398
48.26199367997702,0.0178392311301928
48.290721057167474,0.0142726902048217
48.31944843435794,0.0070359021179223
48.3481758115484,0.0058406000651791
48.376903188738865,0.0055996324300639
48.40563056592933,0.0057946300521836
48.43435794311979,0.0055847696621317
48.46308532031025,0.0055245781952106
48.49181269750071,0.0067529788591125
48.520540074691176,0.0079636928303063
48.54926745188164,0.0074197842329449
48.577994829072104,0.0072976053485016
48.60672220626257,0.0074693103554402
48.635449583453024,0.0071238701958581
48.66417696064349,0.0061077781312723
48.69290433783395,0.0083774147698286
48.721631715024415,0.0055810279389433
48.75035909221488,0.0053122034113642
48.77908646940534,0.0041883175757491
48.8078138465958,0.0042931099488959
48.83654122378626,0.003325572103496
48.86526860097673,0.0035363740840189
48.89399597816719,0.0035262453429381
48.922723355357654,0.0035509497862224
48.95145073254812,0.0035053475257485
48.980178109738574,0.003414226283116
49.00890548692904,0.0038555195751648
49.0376328641195,0.0038419725385761
49.066360241309965,0.003881630720632
49.09508761850043,0.0039078126710306
49.12381499569089,0.003532009977848
49.15254237288135,0.0038897639838329
49.18126975007181,0.0039022801215017
49.20999712726228,0.0040062211400705
49.23872450445274,0.0039332478261548
49.2674518816432,0.003680713417104
49.29617925883367,0.00372211168393
49.32490663602413,0.0038535203147404
49.35363401321459,0.003339962452084
49.38236139040505,0.0036928178638619
49.411088767595515,0.0038120954827807
49.43981614478598,0.0034466219570952
49.46854352197644,0.0035605236307949
49.4972708991669,0.0037720279335868
49.52599827635736,0.0038911414997344
49.55472565354783,0.0038917623911483
49.58345303073829,0.0039772124820351
49.612180407928754,0.0040781916814354
49.64090778511922,0.0039109710507466
49.669635162309675,0.0040553409903831
49.69836253950014,0.0039588078516779
49.7270899166906,0.003760879664638
49.755817293881066,0.0037304609401363
49.78454467107153,0.0039029865994175
49.81327204826199,0.0031032790863573
49.84199942545245,0.0038770798822078
49.87072680264291,0.0039554649583655
49.89945417983338,0.0036126318818471
49.92818155702384,0.0036798020518038
49.956908934214304,0.0035761186074881
49.98563631140477,0.0037667655859242
50.014363688595225,0.0040648793843371
50.04309106578569,0.0032403122540141
50.07181844297615,0.003545018448937
50.100545820166616,0.0037084388952264
50.12927319735708,0.0038243760745257
50.15800057454754,0.0040018020689837
50.186727951738,0.0040413195437342
50.21545532892846,0.0040603478492267
50.24418270611893,0.0039825985357566
50.27291008330939,0.0040024287988376
50.301637460499855,0.0041469958942566
50.33036483769032,0.0042773929301834
50.359092214880775,0.0043054204492203
50.38781959207124,0.0042266327009055
50.4165469692617,0.0040394116266741
50.445274346452166,0.0041969501683399
50.47400172364263,0.004381585872963
50.50272910083309,0.0041554220725803
50.53145647802355,0.0043674283018506
50.560183855214014,0.0043452108120123
50.58891123240448,0.0039566113465766
50.61763860959494,0.0039617884104015
50.646365986785405,0.0043620029709509
50.67509336397587,0.0040095074885821
50.703820741166325,0.0039200648126321
50.73254811835679,0.0038100920486004
50.76127549554725,0.0039223599670947
50.79000287273771,0.00371404823285
50.81873024992818,0.0039036863636342
50.84745762711864,0.0042820172975901
50.8761850043091,0.0040580778585604
50.90491238149957,0.0032100574121236
50.93363975869003,0.0049855720479063
50.96236713588049,0.0040974136292965
50.991094513070955,0.0036260205962885
51.01982189026142,0.0039853244165254
51.048549267451875,0.0040597947768359
51.07727664464234,0.0038938754439013
51.1060040218328,0.0041567764612202
51.134731399023266,0.0042562994270892
51.16345877621373,0.0040549301060276
51.192186153404194,0.0039395286241106
51.22091353059465,0.0041572804317608
51.249640907785114,0.0043104494287806
51.27836828497558,0.0040209869992076
51.30709566216604,0.0040629786312985
51.335823039356505,0.0040329198694191
51.36455041654697,0.0039306878171619
51.393277793737425,0.0039439518086317
51.42200517092789,0.0039152928436656
51.45073254811835,0.0038411949442684
51.47945992530882,0.0037167472189563
51.50818730249928,0.003686638835753
51.536914679689744,0.0037534963943983
51.5656420568802,0.0037035512238373
51.594369434070664,0.0032662613787168
51.62309681126113,0.0042341749924092
51.65182418845159,0.0040731868280177
51.680551565642055,0.0037466385718474
51.70927894283252,0.0040536140826476
51.738006320022976,0.0041288944203858
51.76673369721344,0.0037992979280849
51.7954610744039,0.0042618712443214
51.82418845159437,0.0074274431536516
51.85291582878483,0.0105324515604439
51.881643205975294,0.0121553215541134
51.91037058316575,0.0139754068521763
51.939097960356214,0.0144969459717191
51.96782533754668,0.0145223288227692
51.99655271473714,0.0142855116577054
52.025280091927605,0.0150712239230528
52.05400746911807,0.0139686335119027
52.082734846308526,0.0062397293206865
52.11146222349899,0.0073050845964953
52.14018960068945,0.0052044174936909
52.16891697787992,0.0046004258375538
52.19764435507038,0.004527205756286
52.22637173226085,0.0041695006654739
52.2550991094513,0.0041987265874733
52.283826486641765,0.0039843342633441
52.31255386383223,0.0041770709858052
52.34128124102269,0.0040511474648684
52.37000861821315,0.0043252593356834
52.39873599540362,0.0053441118257704
52.42746337259408,0.0051366780244596
52.45619074978454,0.0043045883856337
52.484918126975,0.0049078208635571
52.51364550416547,0.0047194830158574
52.54237288135593,0.0051607694240379
52.571100258546394,0.0047225218319224
52.59982763573685,0.0038692099452949
52.628555012927315,0.0042001751760577
52.65728239011778,0.0037853224786706
52.68600976730824,0.0038145658100394
52.714737144498706,0.0040848957522899
52.74346452168917,0.0040417348890058
52.772191898879626,0.0036166740607671
52.80091927607009,0.0040695448218111
52.82964665326055,0.0043833954026657
52.85837403045102,0.0040693812925178
52.88710140764148,0.0040581234554896
52.915828784831945,0.0040769722991428
52.9445561620224,0.0038860504315019
52.973283539212865,0.0039713252567483
53.00201091640333,0.0039549760727459
53.03073829359379,0.0035418227675682
53.059465670784256,0.0031405005575942
53.08819304797471,0.0043953980664889
53.116920425165176,0.0042192514473261
53.14564780235564,0.0037286680918365
53.174375179546104,0.0040142174678675
53.20310255673657,0.0040810943515393
53.23182993392703,0.00396244460927
53.26055731111749,0.0039618837984719
53.28928468830795,0.0041116877383521
53.318012065498415,0.0038565195758016
53.34673944268888,0.0035359350957364
53.37546681987934,0.0040589229560971
53.404194197069806,0.00376749321673
53.43292157426026,0.0036271141926479
53.46164895145073,0.0036953720626641
53.49037632864119,0.0037386108546978
53.519103705831654,0.0037113059634392
53.54783108302212,0.0037285393836865
53.57655846021258,0.0036454151610277
53.60528583740304,0.0036749944700333
53.6340132145935,0.0038151216570888
53.662740591783965,0.003803419402911
53.69146796897443,0.0037668055774017
53.72019534616489,0.0038913008805092
53.74892272335536,0.0039293146982396
53.77765010054581,0.0039290944245059
53.80637747773628,0.004041118051494
53.83510485492674,0.0039740115213934
53.8638322321172,0.0041861589921396
53.89255960930767,0.0040110551213894
53.92128698649813,0.0040055273391515
53.95001436368859,0.0039640303554135
53.97874174087905,0.0039399765584045
54.007469118069515,0.0038954078311096
54.03619649525998,0.0038116777619222
54.06492387245044,0.0037469614071868
54.09365124964091,0.0037065560974661
54.12237862683136,0.0037218297264506
54.15110600402183,0.0039092840407401
54.17983338121229,0.0035433270302614
54.208560758402754,0.0036624707547625
54.23728813559322,0.0037240172023178
54.26601551278368,0.0036308931052087
54.29474288997414,0.0036265676240561
54.3234702671646,0.0037962856027258
54.352197644355066,0.0035338492506388
54.38092502154553,0.0033321006526673
54.40965239873599,0.0034881890724481
54.43837977592646,0.0034801159786797
54.46710715311691,0.0035364465143561
54.49583453030738,0.0037102902235236
54.52456190749784,0.0037568569576221
54.553289284688304,0.00389303163865
54.58201666187877,0.0037862007238916
54.61074403906923,0.0037932168852571
54.63947141625969,0.0039276741101563
54.66819879345015,0.0038494333616612
54.696926170640616,0.0036828911416655
54.72565354783108,0.0036493180773882
54.75438092502154,0.0037143376830566
54.78310830221201,0.0037692576388958
54.81183567940246,0.0037428314228483
54.84056305659293,0.0036747694737445
54.86929043378339,0.0037713092245933
54.898017810973855,0.0038882466318117
54.92674518816432,0.0037928870015137
54.95547256535478,0.003786964392542
54.98419994254524,0.0036460707896072
55.0129273197357,0.0037760503443724
55.041654696926166,0.0037963959699269
55.07038207411663,0.0038541243312407
55.09910945130709,0.0038476682397205
55.12783682849756,0.0036917671501916
55.156564205688014,0.0038160891523941
55.18529158287848,0.0038089412744445
55.21401896006894,0.0037305984865066
55.242746337259405,0.0037693028951451
55.27147371444987,0.0037043315041168
55.30020109164033,0.0038905993905626
55.32892846883079,0.0037751735328333
55.35765584602125,0.0040154591348148
55.38638322321171,0.0038550656199625
55.41511060040218,0.003859016624887
55.44383797759264,0.0039573763215436
55.47256535478311,0.0040066794831993
55.50129273197357,0.0039662783666313
55.53002010916403,0.003995389711201
55.55874748635449,0.00399531709065
55.587474863544955,0.0037173981330184
55.61620224073542,0.0038206039433879
55.64492961792588,0.0041568343974126
55.67365699511634,0.003855622100443
55.7023843723068,0.0037536986912597
55.731111749497266,0.0038379142418472
55.75983912668773,0.0036417207581539
55.788566503878194,0.0039030020114225
55.81729388106866,0.0040750362943569
55.846021258259114,0.0070597630366201
55.87474863544958,0.013219540374552
55.90347601264004,0.016110173910646
55.932203389830505,0.0152014242717231
55.96093076702097,0.0247013687311122
55.98965814421143,0.0217093115534568
56.01838552140189,0.0219621695501815
56.04711289859235,0.0211919275669756
56.07584027578282,0.01911644255852
56.10456765297328,0.0194071982510969
56.133295030163744,0.0139961991140699
56.16202240735421,0.0066084080888684
56.190749784544664,0.007213986647979
56.21947716173513,0.0050799677698561
56.24820453892559,0.0060750169893134
56.276931916116055,0.0026967237647571
56.30565929330652,0.0034611235827526
56.33438667049698,0.0055180810218576
56.36311404768744,0.0046310134692177
56.3918414248779,0.004233325643624
56.42056880206837,0.0044829171364286
56.44929617925883,0.0044073097105309
56.478023556449294,0.0043296672071519
56.50675093363976,0.0044613781658586
56.535478310830214,0.0042208978317933
56.56420568802068,0.004001988942349
56.59293306521114,0.0041357540554061
56.621660442401605,0.0043472063761867
56.65038781959207,0.0040174688304035
56.67911519678253,0.0039549606282013
56.70784257397299,0.0044256863752122
56.73656995116345,0.0041552433151108
56.76529732835392,0.0039789877558972
56.79402470554438,0.004325800187755
56.82275208273485,0.0041331414781452
56.85147945992531,0.0040813835338888
56.880206837115765,0.0041345216831487
56.90893421430623,0.0041188243587123
56.93766159149669,0.0041020907723755
56.96638896868715,0.0040640144998832
56.99511634587762,0.00413101742296
57.02384372306808,0.0041203823418828
57.05257110025854,0.003844010740876
57.081298477449,0.0037626198312356
57.11002585463947,0.0037194680560706
57.13875323182993,0.0035835895916533
57.167480609020394,0.003741855720788
57.19620798621086,0.0037979389112753
57.224935363401315,0.0036008834134436
57.25366274059178,0.0036588721327184
57.28239011778224,0.0037655363050461
57.311117494972706,0.0037892079424886
57.33984487216317,0.0040064796700219
57.36857224935363,0.0039720523230734
57.39729962654409,0.0038506128166098
57.42602700373455,0.003864383780559
57.45475438092502,0.0039192891878295
57.48348175811548,0.0036951822752974
57.512209135305945,0.0036316853681534
57.54093651249641,0.0039543766583888
57.569663889686865,0.0037884248966196
57.59839126687733,0.0037990157302275
57.62711864406779,0.003608393309446
57.655846021258256,0.0037811034870217
57.68457339844872,0.0039464838002546
57.71330077563918,0.0037550444202616
57.74202815282964,0.0036572617112324
57.770755530020104,0.0035063265537465
57.79948290721057,0.0035901521363678
57.82821028440103,0.0035126580105814
57.856937661591495,0.003975853641507
57.88566503878196,0.0038545673586912
57.914392415972415,0.0037272702137699
57.94311979316288,0.0040056384098224
57.97184717035334,0.0041110048074742
58.000574547543806,0.0041914151058314
58.02930192473427,0.004203540147551
58.05802930192473,0.0041865175044111
58.08675667911519,0.0041806882169022
58.115484056305654,0.0041607101740086
58.14421143349612,0.0043447629294564
58.17293881068658,0.0043210159295825
58.201666187877045,0.0041683456517121
58.23039356506751,0.0042261473336409
58.259120942257965,0.0042299177579592
58.28784831944843,0.0041914558759368
58.31657569663889,0.0041600722958576
58.34530307382936,0.0040564850843256
58.37403045101982,0.0039417965699776
58.40275782821029,0.0040280314950729
58.43148520540074,0.0040469011932472
58.4602125825912,0.0039633579076889
58.48893995978167,0.0040025944457609
58.51766733697213,0.0041058368149958
58.546394714162595,0.0039806885763159
58.57512209135306,0.0040994718929976
58.603849468543515,0.0039972589783346
58.63257684573398,0.0041324808231374
58.66130422292444,0.0039775429725634
58.69003160011491,0.0039857926765656
58.71875897730537,0.0039487969585871
58.747486354495834,0.003756906545845
58.77621373168629,0.0038579009236256
58.804941108876754,0.003875351867789
58.83366848606722,0.0037606454170698
58.86239586325768,0.0039085548250987
58.891123240448145,0.0039276461604669
58.9198506176386,0.0041077357523918
58.948577994829066,0.0041250737257213
58.97730537201953,0.0041645536500728
59.00603274920999,0.0042907374519189
59.03476012640046,0.0041322311990064
59.06348750359092,0.0040551900187114
59.09221488078138,0.0038763463038716
59.12094225797184,0.0043238621663926
59.149669635162304,0.0042070318392211
59.17839701235277,0.0041508451092346
59.20712438954323,0.0040629341707124
59.235851766733695,0.0041969438706299
59.26457914392415,0.0040536060513912
59.293306521114616,0.0042583773193464
59.32203389830508,0.0042284697158284
59.35076127549554,0.0040010591729842
59.37948865268601,0.0040432281519896
59.40821602987647,0.0039378261658669
59.43694340706693,0.0039685946488346
59.46567078425739,0.0039965712332168
59.494398161447855,0.0042553851546389
59.52312553863832,0.004156743056377
59.55185291582878,0.0041852492955006
59.580580293019246,0.0042499168230415
59.6093076702097,0.0043317778799659
59.638035047400166,0.0044621928764498
59.66676242459063,0.0043246398195085
59.69548980178109,0.004434584280225
59.72421717897156,0.0046265727927035
59.75294455616202,0.0049536155863936
59.78167193335248,0.0041797211536945
59.81039931054294,0.0010692828767047
59.839126687733405,0.0112214980453519
59.86785406492387,0.0175422430760213
59.89658144211433,0.0183936037456746
59.9253088193048,0.0220411038710407
59.95403619649525,0.0234102940461009
59.98276357368571,0.0236154021121993
60.01149095087618,0.0236326860835197
60.04021832806664,0.0232375306766432
60.06894570525711,0.0219338139779219
60.09767308244757,0.018781816684779
60.12640045963803,0.0141397898487868
60.15512783682849,0.0094484720531478
60.183855214018955,0.0071119851085035
60.21258259120942,0.0065362128234315
60.24130996839988,0.0060701047565538
60.270037345590346,0.0059675104389885
60.2987647227808,0.0053090120076054
60.327492099971266,0.0052067836989621
60.35621947716173,0.0037908930332846
60.384946854352194,0.0038122754150117
60.41367423154266,0.0051837506536185
60.44240160873312,0.0049307696407565
60.47112898592358,0.0046791585313793
60.49985636311404,0.0047817602655462
60.528583740304505,0.0049162203194672
60.55731111749497,0.0049262418754423
60.58603849468543,0.0048917537908972
60.614765871875896,0.0050103485490674
60.64349324906635,0.0048034625311665
60.672220626256816,0.0042322119529061
60.70094800344728,0.0043685607400055
60.729675380637744,0.0041553171587728
60.75840275782821,0.0041505341613369
60.78713013501867,0.0043885286457174
60.81585751220913,0.0044959638320519
60.84458488939959,0.0042853229835825
60.873312266590055,0.0045158893030875
60.90203964378052,0.0044342718639511
60.93076702097098,0.004460129512367
60.959494398161446,0.0044287866858283
60.9882217753519,0.0044543799427039
61.01694915254237,0.00439790771477
61.04567652973283,0.0042961577773857
61.074403906923294,0.0043820082343515
61.10313128411376,0.0043280855499548
61.13185866130422,0.0041691679827961
61.16058603849468,0.0044340168848251
61.18931341568514,0.0043577646331337
61.218040792875605,0.0043128264775832
61.24676817006607,0.003591826432395
61.27549554725653,0.0051079799242446
61.304222924447,0.0048181073951442
61.33295030163745,0.0045344428666285
61.36167767882792,0.0044882462750556
61.39040505601838,0.0045915598729764
61.41913243320885,0.0045248124370978
61.44785981039931,0.00470361130628
61.47658718758977,0.0047958362180802
61.50531456478023,0.0046065252312968
61.53404194197069,0.0043149445460275
61.56276931916115,0.0046281781262383
61.59149669635162,0.0047174393721567
61.62022407354208,0.0044180471510161
61.64895145073255,0.0044153982891192
61.677678827923,0.0045067392173529
61.70640620511347,0.0042685010703901
61.73513358230393,0.0038905174875939
61.763860959494394,0.0041884186803631
61.79258833668486,0.0039730847895326
61.82131571387532,0.0037879422055109
61.85004309106578,0.004046994625971
61.87877046825624,0.004330762686917
61.907497845446706,0.0041587101713855
61.93622522263717,0.0034705298117831
61.96495259982763,0.0053388452351983
61.9936799770181,0.0043488194390205
62.02240735420855,0.0043385999422932
62.05113473139902,0.0044004878960449
62.07986210858948,0.0041323059617819
62.108589485779945,0.0040903946270951
62.13731686297041,0.0042126708071935
62.16604424016087,0.0042539566300596
62.19477161735133,0.0039161337495648
62.22349899454179,0.004130441098921
62.252226371732256,0.0041445396560629
62.28095374892272,0.0041220004989257
62.30968112611318,0.0041092186420774
62.33840850330365,0.0040955809714219
62.367135880494104,0.0040193670939248
62.39586325768457,0.0038893021870492
62.42459063487503,0.0043345012552311
62.453318012065495,0.0039680177481759
62.48204538925596,0.0040140260566155
62.51077276644642,0.0040269297241352
62.53950014363688,0.0041029515013214
62.56822752082734,0.0041821439887234
62.596954898017806,0.0040975000478861
62.62568227520827,0.0042282136025323
62.65440965239873,0.0041694058404585
62.6831370295892,0.0042093821335431
62.711864406779654,0.004431852661661
62.74059178397012,0.0041824992552307
62.76931916116058,0.0038711677417182
62.798046538351045,0.0045271559279607
62.82677391554151,0.0042105823367914
62.85550129273197,0.0041363866359448
62.88422866992243,0.0044168889014728
62.91295604711289,0.0041555468049473
62.94168342430336,0.0039980650164991
62.97041080149382,0.0042477058740013
62.99913817868429,0.0042560081178408
63.02786555587475,0.0039196445844001
63.0565929330652,0.0041291270215283
63.08532031025567,0.0042844849909701
63.11404768744613,0.0042927724536485
63.142775064636595,0.0042628935546862
63.17150244182706,0.0048876881149163
63.20022981901752,0.0041532968087371
63.22895719620798,0.0038760334009414
63.25768457339844,0.0044510601648843
63.28641195058891,0.0041156331387897
63.31513932777937,0.0041967356349275
63.343866704969834,0.0043849707074941
63.3725940821603,0.0043595535786434
63.401321459350754,0.0044065358040906
63.43004883654122,0.0043677433140369
63.45877621373168,0.0042290244987267
63.487503590922145,0.0041642325967715
63.51623096811261,0.0042407161678292
63.54495834530307,0.0041929935399915
63.57368572249353,0.0039906747879
63.60241309968399,0.0041177341899962
63.63114047687446,0.0046404933586922
63.65986785406492,0.0043956365713084
63.688595231255384,0.0040439505906392
63.71732260844585,0.0056913587101174
63.746049985636304,0.0074434460479687
63.77477736282677,0.0043223943979348
63.80350474001723,0.0182294875869572
63.832232117207695,0.0205465056943929
63.86095949439816,0.019727591654089
63.88968687158862,0.0221251723606982
63.91841424877908,0.0225845035526616
63.94714162596954,0.0233179250482666
63.97586900316001,0.0224693202648022
64.00459638035046,0.0166120886948118
64.03332375754093,0.0200405163469738
64.06205113473139,0.0117453067163576
64.09077851192185,0.011870536171428718
64.11950588911232,0.0100483683232838
64.14823326630278,0.0065800185992719
64.17696064349325,0.0061969183478734
64.20568802068371,0.0056861101620806
64.23441539787417,0.0054558854883203
64.26314277506464,0.0055316350834371
64.2918701522551,0.0052106609224996
64.32059752944556,0.0051944241068168
64.34932490663601,0.0047155288947414
64.37805228382648,0.0046551621238732
64.40677966101694,0.0045446147658335
64.4355070382074,0.0040785252595158
64.46423441539787,0.0037609116378496
64.49296179258833,0.0049343982160866
64.5216891697788,0.0045746789131995
64.55041654696926,0.0041992447976275
64.57914392415972,0.0045008282648432
64.60787130135019,0.0045899154881203
64.63659867854065,0.0047887613291968
64.66532605573111,0.0045025464060628
64.69405343292156,0.0044045617605281
64.72278081011203,0.0045172292121755
64.75150818730249,0.0044304661774991
64.78023556449295,0.0044264790709391
64.80896294168342,0.0043349886113195
64.83769031887388,0.0040919996590738
64.86641769606435,0.0040311740457714
64.89514507325481,0.0040823001918835
64.92387245044527,0.0041139916208546
64.95259982763574,0.0042534435882836
64.9813272048262,0.0043184163944346
65.01005458201665,0.0038551700695336
65.03878195920711,0.0042876334423787
65.06750933639758,0.0043585952520874
65.09623671358804,0.0043948196869772
65.1249640907785,0.0044036776683293
65.15369146796897,0.0041207245566658
65.18241884515943,0.0043483576787261
65.2111462223499,0.004507662840999
65.23987359954036,0.0041071430146797
65.26860097673082,0.0041583236816
65.29732835392129,0.0042479611664585
65.32605573111175,0.0042731566119913
65.3547831083022,0.0041630370006994
65.38351048549266,0.0043143995468282
65.41223786268313,0.0042996190442401
65.44096523987359,0.0042059562643877
65.46969261706406,0.0049294455796711
65.49841999425452,0.0042705536114359
65.52714737144498,0.0040233983952299
65.55587474863545,0.00456072426257
65.58460212582591,0.0044113425823175
65.61332950301637,0.004345092533768
65.64205688020684,0.0043293410511577
65.6707842573973,0.0043470571181383
65.69951163458775,0.0044343937012462
65.72823901177821,0.0043917461100062
65.75696638896868,0.0041014815962696
65.78569376615914,0.0045447419693388
65.8144211433496,0.0045975407113384
65.84314852054007,0.0043370647177909
65.87187589773053,0.0043468072573169
65.900603274921,0.0039417940022653
65.92933065211146,0.0045335007622192
65.95805802930192,0.0044111379085007
65.98678540649239,0.0043035215183867
66.01551278368285,0.0042997081512442
66.0442401608733,0.0043063333356471
66.07296753806376,0.0043547059024614
66.10169491525423,0.0043342476838316
66.13042229244469,0.004332496533692
66.15914966963516,0.0042490580775725
66.18787704682562,0.0041032977455288
66.21660442401608,0.0041198043149595
66.24533180120655,0.0040734609178273
66.27405917839701,0.0040574576765181
66.30278655558747,0.0043136363349439
66.33151393277794,0.0043660410894247
66.3602413099684,0.0043999562420105
66.38896868715885,0.0043046571938798
66.41769606434931,0.0046571893305042
66.44642344153978,0.0044625200685453
66.47515081873024,0.0043715962901847
66.5038781959207,0.0044836325486712
66.53260557311117,0.0043879303812213
66.56133295030163,0.004245345188736
66.5900603274921,0.0041771392616153
66.61878770468256,0.0042987827165959
66.64751508187302,0.0039330531839311
66.67624245906349,0.0027366132124628
66.70496983625395,0.0056041427928159
66.7336972134444,0.0044835560891422
66.76242459063486,0.0039232039743068
66.79115196782533,0.0043936781358952
66.81987934501579,0.0043806261057652
66.84860672220626,0.0042314225321622
66.87733409939672,0.0043210299200532
66.90606147658718,0.0048489406220944
66.93478885377765,0.0035813711978665
66.96351623096811,0.0040213904440286
66.99224360815857,0.004245279473721
67.02097098534904,0.0039716396598562
67.0496983625395,0.003871506554874
67.07842573972995,0.0040383005584625
67.10715311692041,0.0040675686177795
67.13588049411088,0.0039927558065528
67.16460787130134,0.0040668938495164
67.1933352484918,0.0042060776071482
67.22206262568227,0.0041536038015795
67.25079000287273,0.004138667114896
67.2795173800632,0.0041783539592504
67.30824475725366,0.0041837952445743
67.33697213444412,0.0042616562896457
67.36569951163459,0.0041053750341974
67.39442688882505,0.0048683026066544
67.4231542660155,0.0042997586438377
67.45188164320597,0.0040841594917781
67.48060902039643,0.0044443735941905
67.50933639758689,0.0044928587459511
67.53806377477736,0.0041032071126538
67.56679115196782,0.0043916261916365
67.59551852915828,0.004500567091094
67.62424590634875,0.0038703717553385
67.65297328353921,0.004169455086118
67.68170066072967,0.0040975986521771
67.71042803792014,0.0041586850543164
67.7391554151106,0.0041663853027194
67.76788279230105,0.0038724990857372
67.79661016949152,0.0039457972562988
67.82533754668198,0.009651153635977067
67.85406492387244,0.0229901396018539
67.8827923010629,0.0138223352223726
67.91151967825337,0.0091097653468805
67.94024705544383,0.0207368574250893
67.9689744326343,0.0207909384769112
67.99770180982476,0.020051564728589
68.02642918701522,0.0206590686973696
68.05515656420569,0.022288478120081
68.08388394139615,0.019010736505531
68.1126113185866,0.0184957078486678
68.14133869577707,0.0149277377437512
68.17006607296753,0.0032360636665992
68.19879345015799,0.0013863277284737
68.22752082734846,0.0079360694931229
68.25624820453892,0.0055453544448729
68.28497558172938,0.0040963293935558
68.31370295891985,0.0057129461615625
68.34243033611031,0.0051272556677666
68.37115771330078,0.0045456991361104
68.39988509049124,0.0048316843830413
68.4286124676817,0.006016178390819
68.45733984487215,0.0031582789978881
68.48606722206262,0.0045360271202663
68.51479459925308,0.0040673182649435
68.54352197644354,0.0043630022777239
68.572249353634,0.0042992582809752
68.60097673082447,0.0044412141633715
68.62970410801493,0.0046076287976749
68.6584314852054,0.0039686184978085
68.68715886239586,0.0048191288905973
68.71588623958633,0.00457350008758
68.74461361677679,0.0042822066916212
68.77334099396725,0.0046614153685777
68.8020683711577,0.0048565664039551
68.83079574834817,0.0040667293105385
68.85952312553863,0.0045283355666468
68.8882505027291,0.0045067149850179
68.91697787991956,0.0042205358083843
68.94570525711002,0.0042297228661391
68.97443263430048,0.0043407051825226
69.00316001149095,0.0042706660420387
69.03188738868141,0.0042646271657942
69.06061476587188,0.0044229222851164
69.08934214306234,0.0044092877686508
69.1180695202528,0.0045515184916047
69.14679689744325,0.0044775016917219
69.17552427463372,0.004580494021215
69.20425165182418,0.0045582670350509
69.23297902901464,0.0044413009656152
69.2617064062051,0.0045656652301064
69.29043378339557,0.0040039299778102
69.31916116058603,0.0042524653617162
69.3478885377765,0.004419942310338
69.37661591496696,0.0044098049277172
69.40534329215743,0.0043394785849919
69.43407066934789,0.0041887264252041
69.46279804653835,0.0043638691610104
69.4915254237288,0.0045242035859773
69.52025280091927,0.0043457905204803
69.54898017810973,0.004251131477438
69.5777075553002,0.0045668439991204
69.60643493249066,0.0045673700099201
69.63516230968112,0.0045782534556638
69.66388968687158,0.0044013960331174
69.69261706406205,0.0043691660310973
69.72134444125251,0.0043600681744979
69.75007181844298,0.0043061266423712
69.77879919563344,0.0041921168209932
69.8075265728239,0.0040267515115148
69.83625395001435,0.004060217764471
69.86498132720482,0.0043077236383028
69.89370870439528,0.0041559283904923
69.92243608158574,0.004239324790243
69.95116345877621,0.0042326925222615
69.97989083596667,0.0042039523613849
70.00861821315713,0.0045474521257328
70.0373455903476,0.0045135455840556
70.06607296753806,0.0043493902914776
70.09480034472853,0.0044767137540125
70.12352772191899,0.0046605670664342
70.15225509910945,0.0046257533622479
70.1809824762999,0.0045008081685172
70.20970985349037,0.0045519356204735
70.23843723068083,0.0043289853960147
70.2671646078713,0.0042107248380562
70.29589198506176,0.0042556094817866
70.32461936225222,0.0041994300561322
70.35334673944269,0.0038761793023595
70.38207411663315,0.0036563776696612
70.41080149382361,0.003887762360472
70.43952887101408,0.004036042125204
70.46825624820454,0.0039099906629221
70.496983625395,0.0040187421622297
70.52571100258545,0.0040134717083834
70.55443837977592,0.0042000764664323
70.58316575696638,0.0039555161062323
70.61189313415684,0.0045519512424524
70.64062051134731,0.0043678539616687
70.66934788853777,0.0041062124039505
70.69807526572824,0.004255779474469
70.7268026429187,0.0044983238473725
70.75553002010916,0.0041143647506789
70.78425739729963,0.0042368436615529
70.81298477449009,0.0044160993634616
70.84171215168054,0.0043552503907053
70.870439528871,0.0042002294388503
70.89916690606147,0.0047393068151942
70.92789428325193,0.0043650378563896
70.9566216604424,0.0042818102923046
70.98534903763286,0.004446575208402
71.01407641482332,0.0046046965549333
71.04280379201379,0.0041083197009628
71.07153116920425,0.0052658082355555
71.10025854639471,0.0050606359678345
71.12898592358518,0.0046385183203128
71.15771330077564,0.004740164325394
71.18644067796609,0.0045914658923154
71.21516805515655,0.0043771548633289
71.24389543234702,0.0046910465416493
71.27262280953748,0.0049387049035297
71.30135018672794,0.0037044917813575
71.33007756391841,0.0042628832583959
71.35880494110887,0.0040492185753311
71.38753231829934,0.0045232201978459
71.4162596954898,0.0046857751175056
71.44498707268026,0.0045808267568172
71.47371444987073,0.0048346169354786
71.50244182706119,0.0046451783286435
71.53116920425164,0.004529193660966
71.5598965814421,0.0055922169549581
71.58862395863257,0.0039316796527868
71.61735133582303,0.0043479652487059
71.6460787130135,0.0046625289678706
71.67480609020396,0.0047542448987853
71.70353346739442,0.0047499220407722
71.73226084458489,0.0047870542510954
71.76098822177535,0.0047632153612792
71.78971559896581,0.0045656635150557
71.81844297615628,0.0045336421888403
71.84717035334674,0.0044268446467242
71.87589773053719,0.0045085408982541
71.90462510772765,0.0041192623274809
71.93335248491812,0.004132278614556
71.96207986210858,0.0042177065526364
71.99080723929904,0.004114364602992
72.01953461648951,0.0040744783299198
72.04826199367997,0.004246068935677
72.07698937087044,0.0048549458164893
72.1057167480609,0.0112817920159966
72.13444412525136,0.0166156227939673
72.16317150244183,0.0178850681836641
72.19189887963229,0.0244875203389949
72.22062625682274,0.0230592906717118
72.2493536340132,0.0218508148597818
72.27808101120367,0.0228248078205129
72.30680838839413,0.0226989361815798
72.3355357655846,0.0236237660765256
72.36426314277506,0.0187050293179774
72.39299051996552,0.0091554197375534
72.42171789715599,0.0100890187860005
72.45044527434645,0.0090470339672287
72.47917265153691,0.0084477698866861
72.50790002872738,0.0080934656162004
72.53662740591784,0.0075257608745397
72.56535478310829,0.0064777438003525
72.59408216029875,0.0054697683697421
72.62280953748922,0.0057851049378305
72.65153691467968,0.007880142025646
72.68026429187015,0.0072601296763218
72.70899166906061,0.0072929859752082
72.73771904625107,0.0075472003087151
72.76644642344154,0.0070790825458727
72.795173800632,0.0077477485605298
72.82390117782246,0.0065127683537757
72.85262855501293,0.0048388606774505
72.88135593220339,0.0046028129826247
72.91008330939384,0.0047530371056822
72.9388106865843,0.0045853230582056
72.96753806377477,0.0041677641244412
72.99626544096523,0.0042735235325898
73.0249928181557,0.004791839752088
73.05372019534616,0.0045416057315732
73.08244757253662,0.004546602090446
73.11117494972709,0.0048530951364028
73.13990232691755,0.0048401640289413
73.16862970410801,0.0042597674832876
73.19735708129848,0.0046561003066706
73.22608445848894,0.0046964074289061
73.25481183567939,0.0042256520931631
73.28353921286985,0.0044561527692556
73.31226659006032,0.0050088579973841
73.34099396725078,0.0044063875694275
73.36972134444125,0.0045933921542618
73.39844872163171,0.0046557656351324
73.42717609882217,0.0044963224997224
73.45590347601264,0.0044732110364716
73.4846308532031,0.0046559374541214
73.51335823039356,0.0045546350488495
73.54208560758403,0.004229526551313
73.57081298477449,0.0044689829155091
73.59954036196494,0.0046314700286154
73.6282677391554,0.004077461694206
73.65699511634587,0.0042885724676248
73.68572249353633,0.0044045278673294
73.7144498707268,0.0043673175101082
73.74317724791726,0.0042328052876482
73.77190462510772,0.0043779090601143
73.80063200229819,0.0044506220676374
73.82935937948865,0.0043223946899543
73.85808675667911,0.0043960284961692
73.88681413386958,0.0045846506148096
73.91554151106004,0.0046644830712315
73.94426888825049,0.0044769069578394
73.97299626544095,0.0046569053561351
74.00172364263142,0.0045556091582675
74.03045101982188,0.0042216126110785
74.05917839701235,0.0044867854219768
74.08790577420281,0.0046933999701773
74.11663315139327,0.0042595798144874
74.14536052858374,0.0041325488280816
74.1740879057742,0.0043307135264655
74.20281528296466,0.0041342729738702
74.23154266015513,0.0035136752724812
74.26027003734559,0.0047315819223041
74.28899741453604,0.004481665154046
74.3177247917265,0.0042286582317229
74.34645216891697,0.0046369858744665
74.37517954610743,0.004709908147218
74.4039069232979,0.0043970436525614
74.43263430048836,0.005042627880308
74.46136167767882,0.0050287647460063
74.49008905486929,0.0045166233035941
74.51881643205975,0.0045565655550846
74.54754380925021,0.0044668509709716
74.57627118644068,0.0047949165535776
74.60499856363114,0.0044168129286442
74.63372594082159,0.0047782771271845
74.66245331801206,0.0040024304799501
74.69118069520252,0.0039787892185744
74.71990807239298,0.0044812059230178
74.74863544958345,0.0043700843870223
74.77736282677391,0.004283201444671
74.80609020396437,0.0042982137988968
74.83481758115484,0.0043948383354497
74.8635449583453,0.0044958244960666
74.89227233553576,0.0045169777336015
74.92099971272623,0.0047414284109366
74.94972708991669,0.0047801746604147
74.97845446710714,0.0045748615067409
75.0071818442976,0.0051016707344553
75.03590922148807,0.0052551955974569
75.06463659867853,0.0047694137409462
75.093363975869,0.0053791177871852
75.12209135305946,0.005442070907991
75.15081873024992,0.0051849628872731
75.17954610744039,0.005027266862233
75.20827348463085,0.0050077044777398
75.23700086182131,0.0048410957882962
75.26572823901178,0.0045003535747965
75.29445561620224,0.0044995344718027
75.32318299339269,0.0044974868498151
75.35191037058316,0.0043557097586386
75.38063774777362,0.0041187845343573
75.40936512496408,0.0045627595687081
75.43809250215455,0.0044999300410327
75.46681987934501,0.0043357978047571
75.49554725653547,0.0046186459914494
75.52427463372594,0.0046637567727866
75.5530020109164,0.0043949085551036
75.58172938810687,0.004299316770711
75.61045676529733,0.0048852059780027
75.63918414248779,0.0048596580401232
75.66791151967824,0.0046340471500091
75.6966388968687,0.0046886430066852
75.72536627405917,0.004739986473205
75.75409365124963,0.0044229907095607
75.7828210284401,0.0046372383975025
75.81154840563056,0.0047225064372847
75.84027578282102,0.0044515694347135
75.86900316001149,0.0045034900967099
75.89773053720195,0.0045773604626132
75.92645791439242,0.0046453675843313
75.95518529158288,0.0045703315091759
75.98391266877334,0.0043954865797289
76.01264004596379,0.0024850804380457
76.04136742315426,0.0133033008923034
76.07009480034472,0.0171223542850793
76.09882217753518,0.0178883194431974
76.12754955472565,0.0207680853410031
76.15627693191611,0.0211686550359509
76.18500430910657,0.021440684000438
76.21373168629704,0.0214011523996549
76.2424590634875,0.0202889570364502
76.27118644067797,0.0148467467593942
76.29991381786843,0.0085544003428702
76.32864119505889,0.0101434906527724
76.35736857224934,0.003490041141003
76.3860959494398,0.0045248866614963
76.41482332663027,0.0055975847277983
76.44355070382073,0.0044365991927571
76.4722780810112,0.0046277019921551
76.50100545820166,0.0041857843775699
76.52973283539212,0.0041755660166893
76.55846021258259,0.0041951058877131
76.58718758977305,0.0042606328170111
76.61591496696352,0.0051795253582881
76.64464234415398,0.0057490013041909
76.67336972134443,0.0055956340230109
76.70209709853489,0.0057561037515483
76.73082447572536,0.0062123766905212
76.75955185291582,0.0066913327486281
76.78827923010628,0.0067274596047698
76.81700660729675,0.006227341255956
76.84573398448721,0.0056665140919572
76.87446136167767,0.0058136818163687
76.90318873886814,0.0056322548508259
76.9319161160586,0.0066153018915417
76.96064349324907,0.0051427350260642
76.98937087043953,0.003664388406708
77.01809824762998,0.0050535459689502
77.04682562482044,0.0048162339808641
77.0755530020109,0.0045329427117249
77.10428037920137,0.0046665007968158
77.13300775639183,0.0045034648461187
77.1617351335823,0.0046901986576997
77.19046251077276,0.004557985650218
77.21918988796322,0.004444876942784
77.24791726515369,0.0045299967476368
77.27664464234415,0.0049267208697604
77.30537201953462,0.004011637910383
77.33409939672508,0.0044737021412243
77.36282677391553,0.0042170500236912
77.39155415110599,0.004069100372258
77.42028152829646,0.0041953514949426
77.44900890548692,0.0043664888544489
77.47773628267738,0.0040203116437509
77.50646365986785,0.0040681409814543
77.53519103705831,0.0046253397300618
77.56391841424877,0.0041975215607707
77.59264579143924,0.0042018737333083
77.6213731686297,0.0043968377586153
77.65010054582017,0.0043728058423568
77.67882792301063,0.0042788164718241
77.70755530020108,0.004464319922883
77.73628267739154,0.0045704242170118
77.765010054582,0.0041321117817574
77.79373743177247,0.0042771778248087
77.82246480896293,0.0042797091447302
77.8511921861534,0.0043791677072219
77.87991956334386,0.0042602066979767
77.90864694053433,0.0042225865222124
77.93737431772479,0.0043800422127104
77.96610169491525,0.0043273537796486
77.99482907210572,0.0040765429932251
78.02355644929618,0.0052703210758919
78.05228382648663,0.0055175181089794
78.0810112036771,0.0034407709200312
78.10973858086756,0.004615193755693
78.13846595805802,0.0046599755932189
78.16719333524848,0.0044340375266427
78.19592071243895,0.0042541508941656
78.22464808962941,0.0051232366439629
78.25337546681988,0.0047567387283423
78.28210284401034,0.0045848080554096
78.3108302212008,0.0047101751115939
78.33955759839127,0.0048408675488108
78.36828497558173,0.0048534912756345
78.39701235277218,0.0046510754772716
78.42573972996264,0.0044391986001198
78.4544671071531,0.0040858724408316
78.48319448434357,0.0046342863039291
78.51192186153403,0.0048051134972422
78.5406492387245,0.0036953883119097
78.56937661591496,0.00440251441028
78.59810399310543,0.004413964664985
78.62683137029589,0.0044294660610386
78.65555874748635,0.0043574125260485
78.68428612467682,0.0042339447387529
78.71301350186728,0.0044817459846128
78.74174087905773,0.0043153611570923
78.7704682562482,0.0041332960641695
78.79919563343866,0.0043697952159145
78.82792301062912,0.0045111421786029
78.85665038781958,0.0041110939046559
78.88537776501005,0.0045277008831663
78.91410514220051,0.0043829723978859
78.94283251939098,0.0044364042314267
78.97155989658144,0.0043187855661038
79.0002872737719,0.0046547347232256
79.02901465096237,0.0044195620868795
79.05774202815283,0.0044046735001815
79.08646940534328,0.0046803602113037
79.11519678253374,0.0046168075319075
79.14392415972421,0.004075102878431
79.17265153691467,0.0043189104154694
79.20137891410513,0.0042704683572992
79.2301062912956,0.0040966521054713
79.25883366848606,0.0041700342668614
79.28756104567653,0.0042358701809638
79.31628842286699,0.0040663963228473
79.34501580005745,0.0040896225470552
79.37374317724792,0.0042352175593314
79.40247055443838,0.0041695102338751
79.43119793162883,0.0039359936663146
79.4599253088193,0.0042855198856453
79.48865268600976,0.0042114474010803
79.51738006320022,0.0038123673057001
79.54610744039068,0.0042214664438577
79.57483481758115,0.0043115691975018
79.60356219477161,0.004164097977106
79.63228957196208,0.0043169480436247
79.66101694915254,0.0043991189768991
79.689744326343,0.0043676631352864
79.71847170353347,0.0044138064679542
79.74719908072393,0.0045668150550687
79.77592645791438,0.0046291938062541
79.80465383510484,0.0042786465329045
79.83338121229531,0.0044083993071918
79.86210858948577,0.0044196957053228
79.89083596667624,0.0040951265306725
79.9195633438667,0.0039700997826273
79.94829072105716,0.0033167583570232
79.97701809824763,0.0073851134885075
80.00574547543809,0.0161650109451751
80.03447285262855,0.02176902188839
80.06320022981902,0.0258429708276946
80.09192760700948,0.0286775252729065
80.12065498419993,0.0290826385670712
80.1493823613904,0.0291861055649413
80.17810973858086,0.0292165751857786
80.20683711577132,0.0285355852140249
80.23556449296179,0.0299976892830853
80.26429187015225,0.0239012984805935
80.29301924734271,0.0148558469495857
80.32174662453318,0.0071366627569388
80.35047400172364,0.0076512645368714
80.3792013789141,0.0032014163324004
80.40792875610457,0.0048968945707966
80.43665613329503,0.0051322249901817
80.46538351048548,0.004622821720629
80.49411088767594,0.0046824422059964
80.52283826486641,0.004955710762091
80.55156564205687,0.0053671973185558
80.58029301924734,0.0056791803793571
80.6090203964378,0.0062855087165017
80.63774777362826,0.0062796147461888
80.66647515081873,0.0031326366300089
80.69520252800919,0.0118825710575838
80.72392990519965,0.0074836236580026
80.75265728239012,0.0084492088311313
80.78138465958058,0.0055864476079991
80.81011203677103,0.0066970309459222
80.8388394139615,0.007103593698165
80.86756679115196,0.0068967663941131
80.89629416834242,0.0065301282896392
80.92502154553289,0.0056617710233068
80.95374892272335,0.0046123424790766
80.98247629991381,0.0044499588904728
81.01120367710428,0.0046929701653316
81.03993105429474,0.0047392250415397
81.0686584314852,0.0046343622548492
81.09738580867567,0.0047007069274889
81.12611318586613,0.0047376844579798
81.15484056305658,0.0044339878046478
81.18356794024704,0.0044350436331176
81.21229531743751,0.0044540971096112
81.24102269462797,0.0042767503366566
81.26975007181844,0.0041078018586485
81.2984774490089,0.0041449020659806
81.32720482619936,0.0041184861614739
81.35593220338983,0.0043342388597148
81.38465958058029,0.0040252828665959
81.41338695777075,0.0045341767399573
81.44211433496122,0.00445449915471
81.47084171215168,0.0044348653921791
81.49956908934213,0.004809780837958
81.5282964665326,0.0048321632859801
81.55702384372306,0.0045389540957164
81.58575122091352,0.0046797935066545
81.61447859810399,0.0050263332050217
81.64320597529445,0.0047905627051582
81.67193335248491,0.0047120287964661
81.70066072967538,0.0051843853023538
81.72938810686584,0.003980476433567
81.7581154840563,0.0036933744183091
81.78684286124677,0.0050359693089837
81.81557023843723,0.0046333434923379
81.84429761562768,0.0042149731704781
81.87302499281815,0.0043366640107603
81.90175237000861,0.0043305205757709
81.93047974719907,0.0043235328736609
81.95920712438954,0.004298985389626
81.98793450158,0.0042451374707036
82.01666187877046,0.004492474537594
82.04538925596093,0.0043385434264286
82.07411663315139,0.0044488284387584
82.10284401034185,0.0046060475168409
82.13157138753232,0.004225539288739
82.16029876472278,0.0048885664759099
82.18902614191323,0.0042232384083368
82.2177535191037,0.0043165178497271
82.24648089629416,0.0047496049445698
82.27520827348462,0.0048091698822879
82.30393565067509,0.0047554512099365
82.33266302786555,0.004822284873084
82.36139040505601,0.0048656144106422
82.39011778224648,0.004666121924544
82.41884515943694,0.0044857517145253
82.4475725366274,0.0045007852705472
82.47629991381787,0.0043929181286752
82.50502729100832,0.0042434487307304
82.53375466819878,0.0041892900594645
82.56248204538925,0.0042331543397124
82.59120942257971,0.0043436634200586
82.61993679977017,0.0042569139661921
82.64866417696064,0.0043876695427184
82.6773915541511,0.0043760553844524
82.70611893134156,0.0042983623989203
82.73484630853203,0.0042742701552613
82.76357368572249,0.0043458917622458
82.79230106291295,0.0042560306793878
82.82102844010342,0.0040416139436813
82.84975581729387,0.0040547076113483
82.87848319448433,0.004072771675348
82.9072105716748,0.0038484015178428
82.93593794886526,0.0035672115001577
82.96466532605572,0.0047150155936053
82.99339270324619,0.003634509977614
83.02212008043665,0.0030622622607189
83.05084745762711,0.0041075176654848
83.07957483481758,0.0037968122212832
83.10830221200804,0.0038085240747347
83.1370295891985,0.0040203319362692
83.16575696638897,0.0040185164455412
83.19448434357942,0.0041568154415341
83.22321172076988,0.0040764311880336
83.25193909796035,0.0040815972970411
83.28066647515081,0.0039642446531873
83.30939385234127,0.0039848948392009
83.33812122953174,0.0042227856185853
83.3668486067222,0.0035607221962225
83.39557598391266,0.0038656029042649
83.42430336110313,0.0039138996040093
83.45303073829359,0.0039296123804188
83.48175811548406,0.0040774464685978
83.51048549267452,0.0041135528401362
83.53921286986497,0.0039808565759399
83.56794024705543,0.0040675891951731
83.5966676242459,0.0041692265236536
83.62539500143636,0.0042115580051066
83.65412237862682,0.0041780773618858
83.68284975581729,0.0040571975166717
83.71157713300775,0.0040288330063737
83.74030451019821,0.0040050035688098
83.76903188738868,0.0041241916301464
83.79775926457914,0.0043058363086227
83.8264866417696,0.0040857597216149
83.85521401896007,0.0040845924085509
83.88394139615052,0.0042700014572553
83.91266877334098,0.0043237337527367
83.94139615053145,0.0041855835023119
83.97012352772191,0.0041873692941882
83.99885090491237,0.0037604626540091
84.02757828210284,0.0032026273563474
84.0563056592933,0.0040625015389853
84.08503303648376,0.014205565076485
84.11376041367423,0.018602068994618
84.14248779086469,0.0211825981283408
84.17121516805516,0.0205270275299361
84.19994254524562,0.021344079169366
84.22866992243607,0.0221702246907628
84.25739729962653,0.0217895391910587
84.286124676817,0.0195662938265405
84.31485205400746,0.0145866225467057
84.34357943119792,0.0088049886216908
84.37230680838839,0.0057948496605829
84.40103418557885,0.010748727392347
84.42976156276931,0.0087984912236019
84.45848893995978,0.0001105621991618
84.48721631715024,0.0049417155194373
84.5159436943407,0.0046009507840865
84.54467107153117,0.0043464872411316
84.57339844872162,0.004285612188791
84.60212582591208,0.0043810009971613
84.63085320310255,0.0044368362622082
84.65958058029301,0.0043975790858885
84.68830795748347,0.0041975976509688
84.71703533467394,0.004463055388184
84.7457627118644,0.0042551968651118
84.77449008905486,0.0041438621908432
84.80321746624533,0.0042587240975592
84.83194484343579,0.0042864251068197
84.86067222062626,0.0041675986659722
84.88939959781672,0.0042828673297507
84.91812697500717,0.0046346869985161
84.94685435219763,0.0042268646348207
84.9755817293881,0.0058347729387048
85.00430910657856,0.0073142724027075
85.03303648376902,0.0067128769231961
85.06176386095949,0.0063618019259132
85.09049123814995,0.0066257068490262
85.11921861534042,0.0066017915424075
85.14794599253088,0.0089100059996513
85.17667336972134,0.0087486840190886
85.2054007469118,0.0015373735373271
85.23412812410227,0.0041311610003973
85.26285550129272,0.0039839772391505
85.29158287848318,0.0041460296572727
85.32031025567365,0.0042601640931399
85.34903763286411,0.0043059908352266
85.37776501005457,0.0040546824665833
85.40649238724504,0.0041860538689128
85.4352197644355,0.0041230471568221
85.46394714162597,0.0040515610376299
85.49267451881643,0.0042322315736911
85.52140189600689,0.0039856507012773
85.55012927319736,0.00400267341285
85.57885665038782,0.0041602468909324
85.60758402757827,0.0041869679774789
85.63631140476873,0.004060855843734
85.6650387819592,0.0041087104261398
85.69376615914966,0.0042043965860385
85.72249353634012,0.0040721199343631
85.75122091353059,0.0041793279489109
85.77994829072105,0.0043842086423068
85.80867566791152,0.0042633727890262
85.83740304510198,0.0041802897412587
85.86613042229244,0.0045323936135998
85.8948577994829,0.0046030626588072
85.92358517667337,0.0044544637886631
85.95231255386382,0.0043521840580707
85.98103993105428,0.0046685642738713
86.00976730824475,0.0045946294190328
86.03849468543521,0.0041312951550881
86.06722206262567,0.0050306341835435
86.09594943981614,0.0055436582158464
86.1246768170066,0.0027139292947466
86.15340419419707,0.0039706491058177
86.18213157138753,0.0043887111548823
86.210858948578,0.003885497078913
86.23958632576846,0.0040391011940211
86.26831370295892,0.0043527615418624
86.29704108014937,0.0040191243456069
86.32576845733983,0.0036779912722292
86.3544958345303,0.0050674682207651
86.38322321172076,0.0045911300500249
86.41195058891122,0.0044793390035069
86.44067796610169,0.0045784484327609
86.46940534329215,0.0048136181660475
86.49813272048262,0.0045146369315324
86.52686009767308,0.0045882007253571
86.55558747486354,0.0045186465477054
86.584314852054,0.0045050748203018
86.61304222924447,0.0044685597490996
86.64176960643492,0.0044492053169351
86.67049698362538,0.004521516000164
86.69922436081585,0.0043019777931816
86.72795173800631,0.0042531530741966
86.75667911519677,0.0041865775392514
86.78540649238724,0.004125430390333
86.8141338695777,0.0039224323067725
86.84286124676817,0.0039356300281951
86.87158862395863,0.0041270522498157
86.9003160011491,0.0039984532493841
86.92904337833956,0.003917808923481
86.95777075553002,0.0041518171960903
86.98649813272047,0.0041237812319902
87.01522550991093,0.0040176202244072
87.0439528871014,0.0041826021022575
87.07268026429186,0.004457726762799
87.10140764148233,0.0043548219377426
87.13013501867279,0.0044758444550836
87.15886239586325,0.0044462541466163
87.18758977305372,0.0044850199820596
87.21631715024418,0.0043397732111689
87.24504452743464,0.004663098660633
87.27377190462511,0.0044541070874299
87.30249928181557,0.0041544693736638
87.33122665900602,0.0044420547913317
87.35995403619648,0.0044026734443838
87.38868141338695,0.0041604424777565
87.41740879057741,0.0043830946983723
87.44613616776788,0.0048582694354382
87.47486354495834,0.0036500121544853
87.5035909221488,0.0041211476324905
87.53231829933927,0.0047628991868246
87.56104567652973,0.0041989827877971
87.5897730537202,0.0042837455833199
87.61850043091066,0.004617799040755
87.64722780810112,0.004520574017068
87.67595518529157,0.0040309468360458
87.70468256248203,0.0046064992849236
87.7334099396725,0.0043641308901486
87.76213731686296,0.0042774507636246
87.79086469405343,0.004491860173844
87.81959207124389,0.0045686640020481
87.84831944843435,0.0040753575345514
87.87704682562482,0.0041151162862672
87.90577420281528,0.0039827263555488
87.93450158000574,0.0041976221516324
87.96322895719621,0.0042023828821127
87.99195633438667,0.0039677510072664
88.02068371157712,0.0038915880536442
88.04941108876758,0.004334548376938
88.07813846595805,0.0041038147287303
88.10686584314851,0.0106523977918936
88.13559322033898,0.014868147498102
88.16432059752944,0.0197736991490288
88.1930479747199,0.0245434412765471
88.22177535191037,0.0249765208108216
88.25050272910083,0.0252318144228641
88.2792301062913,0.0253461339997698
88.30795748348176,0.0250426505892047
88.33668486067221,0.0232583305634335
88.36541223786267,0.0217253093056126
88.39413961505313,0.0175054574961173
88.4228669922436,0.0086639931649855
88.45159436943406,0.0033875059649828
88.48032174662453,0.0045772262650183
88.50904912381499,0.0045060177689563
88.53777650100545,0.0042390642037236
88.56650387819592,0.0043533683169838
88.59523125538638,0.0043023138062895
88.62395863257684,0.0044227473968813
88.65268600976731,0.0044479897257778
88.68141338695776,0.0043301048819472
88.71014076414822,0.0042689393584129
88.73886814133868,0.0040143684994859
88.76759551852915,0.0040291016224269
88.79632289571961,0.0039888368789108
88.82505027291008,0.0041764237332268
88.85377765010054,0.0041710777293927
88.882505027291,0.0040441611678035
88.91123240448147,0.0036379027179723
88.93995978167193,0.0043356868288047
88.9686871588624,0.0042007494220233
88.99741453605286,0.0039443151616832
89.02614191324331,0.0041105162307052
89.05486929043377,0.004144678662941
89.08359666762424,0.0041400714640207
89.1123240448147,0.0042615866383183
89.14105142200516,0.0041774379586262
89.16977879919563,0.0044958572959716
89.19850617638609,0.0045037661507107
89.22723355357655,0.0045189887809638
89.25596093076702,0.0045179308865976
89.28468830795748,0.0042709908284749
89.31341568514794,0.0043403236161082
89.34214306233841,0.0046026272929694
89.37087043952886,0.0038047232138818
89.39959781671932,0.003700870867393
89.42832519390979,0.0039668587597677
89.45705257110025,0.0039691788585649
89.48577994829071,0.0038554893573763
89.51450732548118,0.003813402646734
89.54323470267164,0.0039069807720142
89.5719620798621,0.0038252482556554
89.60068945705257,0.0038501313398502
89.62941683424303,0.0040975209177587
89.6581442114335,0.0035974531574272
89.68687158862396,0.0038121483257637
89.71559896581441,0.0039156889736814
89.74432634300487,0.0039562612361482
89.77305372019534,0.0037539817441286
89.8017810973858,0.0041695068042908
89.83050847457626,0.0039490718880668
89.85923585176673,0.0037853096595417
89.88796322895719,0.0038206609996879
89.91669060614765,0.0038680172303277
89.94541798333812,0.0038070523574234
89.97414536052858,0.0036267679755696
90.00287273771904,0.0036147443914754
90.03160011490951,0.0040741768541085
90.06032749209996,0.0038909693629188
90.08905486929042,0.0039332393386777
90.11778224648089,0.0040295765832308
90.14650962367136,0.0039998706391081
90.1752370008618,0.0042902176197621
90.20396437805228,0.004180708965366
90.23269175524274,0.0039971736251804
90.2614191324332,0.0041035629719212
90.29014650962368,0.0040775424842378
90.31887388681412,0.0042108415765758
90.3476012640046,0.0043300873000946
90.37632864119506,0.0042744849409512
90.40505601838552,0.0044397705503084
90.43378339557596,0.0042103750351595
90.46251077276644,0.0041800998966103
90.4912381499569,0.0043255581697556
90.51996552714736,0.0041805286643176
90.54869290433784,0.0038637816508764
90.57742028152828,0.0040714414216478
90.60614765871875,0.0041192139003427
90.63487503590922,0.0037590731077901
90.66360241309968,0.0044441095244921
90.69232979029016,0.0047105347220132
90.7210571674806,0.004294741781344
90.74978454467106,0.0042375834307184
90.77851192186152,0.0042254295999619
90.807239299052,0.0043949317490138
90.83596667624244,0.0044655450241195
90.86469405343291,0.0043775862487456
90.89342143062338,0.0042206167414467
90.92214880781384,0.0042062283162974
90.9508761850043,0.0043560888357307
90.97960356219475,0.0043386270961279
91.00833093938525,0.0040948972016726
91.0370583165757,0.0040107350622973
91.06578569376616,0.0044257474653934
91.0945130709566,0.0042660509585227
91.12324044814709,0.0043638495415497
91.15196782533754,0.0043174685112064
91.180695202528,0.0043927754268705
91.20942257971846,0.0044342747255234
91.23814995690891,0.0042768485636808
91.2668773340994,0.0042518248675033
91.29560471128984,0.0042493563545142
91.32433208848032,0.0045953200441583
91.35305946567078,0.0045401782332974
91.38178684286125,0.0043718369919211
91.41051422005172,0.0044817051640297
91.43924159724216,0.0046270327833308
91.46796897443262,0.0044965833928777
91.49669635162309,0.0043520049030546
91.52542372881356,0.004352822133559
91.554151106004,0.0043117948806009
91.58287848319448,0.0042748658651688
91.61160586038494,0.0042779428695419
91.6403332375754,0.0043041194212673
91.66906061476588,0.0041933303354872
91.69778799195632,0.0041388019757334
91.7265153691468,0.0045781222174592
91.75524274633726,0.0037261030275784
91.78397012352772,0.00407825353804
91.81269750071816,0.0042763823250286
91.84142487790864,0.0039915963878
91.8701522550991,0.004259057230354
91.89887963228956,0.0045589529040416
91.92760700948004,0.0087361819822118
91.95633438667048,0.0096635678672714
91.98506176386095,0.0194855966740163
92.01378914105142,0.0232729090733468
92.04251651824188,0.0229345802526634
92.07124389543236,0.0249523062939679
92.0999712726228,0.0254829131486711
92.12869864981326,0.0255710277272198
92.15742602700372,0.0253357181679966
92.1861534041942,0.0220707437675356
92.21488078138464,0.0184008563116828
92.24360815857511,0.0152603150431777
92.27233553576558,0.009107503717393
92.30106291295604,0.0084848242648499
92.3297902901465,0.006858563502444
92.35851766733695,0.0052673876539364
92.38724504452745,0.0049077356445907
92.4159724217179,0.0049102226474378
92.44469979890836,0.0049023319582283
92.4734271760988,0.0050174232479316
92.50215455328927,0.0048404091454878
92.53088193047974,0.004580640919408
92.5596093076702,0.0045925691867911
92.58833668486066,0.0044588602073955
92.61706406205111,0.0044204013187186
92.6457914392416,0.0044115826040511
92.67451881643206,0.0045678332102452
92.70324619362252,0.0043360275835295
92.73197357081298,0.0049789982664137
92.76070094800345,0.0057410829578635
92.78942832519392,0.0059457450926516
92.81815570238436,0.0058285537596762
92.84688307957482,0.0059168375706822
92.87561045676529,0.0059709168302405
92.90433783395576,0.0059363790441605
92.9330652111462,0.0059979702128003
92.96179258833668,0.0050495712531001
92.99051996552714,0.0040643469099495
93.0192473427176,0.0041444063810169
93.04797471990808,0.0043344966928195
93.07670209709852,0.0041632693118195
93.105429474289,0.0041145437671219
93.13415685147946,0.0041955185891565
93.16288422866992,0.0044079660429108
93.19161160586036,0.0041882128692267
93.22033898305084,0.0041642801609915
93.2490663602413,0.0042424295036357
93.27779373743176,0.0041541703777769
93.30652111462224,0.0040475339984622
93.33524849181268,0.0038987072302443
93.36397586900316,0.0038296067808081
93.39270324619362,0.0039486524863035
93.42143062338408,0.0039527591735815
93.45015800057456,0.0039359273963998
93.478885377765,0.0040051278589666
93.50761275495546,0.0041234635984023
93.53634013214592,0.0042881696117578
93.5650675093364,0.0043549480503217
93.59379488652684,0.0044775107670106
93.62252226371731,0.0045790157957912
93.65124964090778,0.0044565636356051
93.67997701809824,0.0044130026646173
93.7087043952887,0.0044442839237249
93.73743177247916,0.0042569964832552
93.76615914966963,0.0042393832932643
93.7948865268601,0.0043354135854685
93.82361390405056,0.0041368359229846
93.852341281241,0.004105153210243
93.88106865843147,0.0045688366882389
93.90979603562194,0.0042738633576808
93.9385234128124,0.0044663360174417
93.96725079000286,0.0047048586663407
93.99597816719331,0.0045254159675023
94.0247055443838,0.0044508395737415
94.05343292157426,0.0043964639122174
94.08216029876472,0.0045297953062857
94.11088767595518,0.0044584278627091
94.13961505314565,0.0042423747078167
94.1683424303361,0.0042170228577851
94.19706980752656,0.0044302613745521
94.22579718471702,0.0042464938648982
94.25452456190747,0.0043569102592489
94.28325193909797,0.0044880957718539
94.31197931628842,0.0044306254911257
94.34070669347888,0.0043955143802998
94.36943407066934,0.0045419303743639
94.3981614478598,0.0044194019535739
94.42688882505028,0.0043318636440545
94.45561620224072,0.0044854809976719
94.4843435794312,0.0046880456280494
94.51307095662165,0.0046026325702639
94.54179833381212,0.0044605059154481
94.57052571100256,0.0044440303209103
94.59925308819304,0.0043904271757127
94.6279804653835,0.0043639636193744
94.65670784257397,0.0041608467335356
94.68543521976444,0.0040339849077963
94.71416259695488,0.00421145656831
94.74288997414536,0.00436752936071
94.77161735133582,0.0042361654277183
94.80034472852628,0.0041962839909254
94.82907210571676,0.0042696944686205
94.8577994829072,0.004176970359449
94.88652686009766,0.0041019177322797
94.91525423728812,0.004259384813933
94.9439816144786,0.0044309254806976
94.97270899166904,0.00385196109424
95.00143636885952,0.0040593525002857
95.03016374604998,0.0041998156628403
95.05889112324044,0.0040998268914662
95.0876185004309,0.0041493282140904
95.11634587762136,0.004141069273126
95.14507325481183,0.0040408559587483
95.1738006320023,0.0040564159882424
95.20252800919276,0.0041541685295619
95.2312553863832,0.0040767762279713
95.25998276357367,0.0040510447207745
95.28871014076414,0.0041813240049405
95.3174375179546,0.0043301537737701
95.34616489514508,0.004265233294536
95.37489227233552,0.0040724262767106
95.403619649526,0.004244267351845
