timestamp,emg
0.0,0.006560419304454
0.0287273771904625,0.0069337882251824
0.057454754380925,0.0063589112813718
0.0861821315713875,0.007049871083636
0.11490950876185,0.0083184121103867
0.1436368859523125,0.0084417103951081
0.172364263142775,0.0082654661887775
0.2010916403332375,0.0092981243254156
0.2298190175237,0.0096941497232932
0.2585463947141626,0.0106491520778038
0.2872737719046251,0.0110836813989994
0.3160011490950876,0.0114416117997967
0.3447285262855501,0.0107850312847058
0.3734559034760126,0.0103009265248626
0.4021832806664751,0.0103449802393245
0.4309106578569376,0.0093834412784298
0.4596380350474001,0.0097699526132067
0.4883654122378627,0.0088290723341774
0.5170927894283252,0.0078574942218667
0.5458201666187876,0.0079110360038004
0.5745475438092502,0.0075023730093135
0.6032749209997127,0.0072425800902609
0.6320022981901752,0.0067780218935536
0.6607296753806376,0.0072501170496286
0.6894570525711002,0.0071891403002486
0.7181844297615627,0.0067800354323116
0.7469118069520252,0.0071866649879367
0.7756391841424878,0.0074058196349175
0.8043665613329503,0.0071313374814512
0.8330939385234127,0.0068235502316163
0.8618213157138752,0.0070729028438616
0.8905486929043378,0.006703863833209
0.9192760700948004,0.0062400820237605
0.9480034472852628,0.0070981863717983
0.9767308244757252,0.0068803265284795
1.0054582016661875,0.006901226022233
1.0341855788566503,0.0064815958856582
1.062912956047113,0.0067230231383735
1.0916403332375753,0.0069891459694248
1.1203677104280378,0.0067521932727183
1.1490950876185004,0.0067752777511177
1.1778224648089628,0.00691262306106
1.2065498419994254,0.0068552469938298
1.235277219189888,0.0068426839630732
1.2640045963803503,0.0085248848160124
1.292731973570813,0.0090732544962966
1.3214593507612753,0.008948249045616
1.350186727951738,0.0090164257320255
1.3789141051422005,0.008909006253808
1.4076414823326628,0.0089489420756556
1.4363688595231254,0.0091774830175089
1.465096236713588,0.0096068320946845
1.4938236139040504,0.0084388809908655
1.522550991094513,0.006838396003795
1.5512783682849756,0.0079940917711746
1.580005745475438,0.0080404358948884
1.6087331226659003,0.0080149184324484
1.637460499856363,0.0082141820694899
1.6661878770468257,0.0077566142855494
1.694915254237288,0.0074704145960933
1.7236426314277504,0.0077320467385124
1.752370008618213,0.0077220190428695
1.7810973858086756,0.0076013272868214
1.809824762999138,0.0073155756388125
1.8385521401896008,0.0071253895475409
1.8672795173800631,0.0068652886776761
1.8960068945705255,0.0061179950459027
1.924734271760988,0.0069880505672279
1.9534616489514507,0.0063807598428391
1.982189026141913,0.006453565337247
2.010916403332375,0.0065259683766439
2.0396437805228382,0.0064735097913827
2.0683711577133006,0.0062667454094698
2.097098534903763,0.0066149109855386
2.125825912094226,0.0068361164006856
2.154553289284688,0.0064760182849914
2.1832806664751505,0.0065043525424282
2.2120080436656133,0.0064521237467926
2.2407354208560757,0.0062408389507768
2.269462798046538,0.0060632191602342
2.298190175237001,0.0060984563737225
2.3269175524274632,0.0057945852552245
2.3556449296179256,0.0052487832203593
2.3843723068083884,0.0057495568239438
2.4130996839988508,0.0060272983848055
2.441827061189313,0.0056057389509917
2.470554438379776,0.0059606125883367
2.4992818155702383,0.0060911053074923
2.5280091927607007,0.005903501468313
2.5567365699511635,0.005972941994945
2.585463947141626,0.0061416875681303
2.614191324332088,0.0060090796026626
2.6429187015225506,0.0059288152151668
2.6716460787130134,0.0058882344558929
2.700373455903476,0.0057921078585341
2.729100833093938,0.0059609742674782
2.757828210284401,0.0060879235572203
2.7865555874748633,0.0062221928586138
2.8152829646653257,0.0059336818295612
2.8440103418557885,0.0058142325575399
2.872737719046251,0.0059637727323683
2.9014650962367132,0.0058346235684621
2.930192473427176,0.0059625012105788
2.9589198506176384,0.0059590191746388
2.9876472278081008,0.0057633289750409
3.0163746049985636,0.0055698353366998
3.045101982189026,0.0056533786229201
3.0738293593794883,0.0058858213598352
3.102556736569951,0.0058426867947725
3.1312841137604135,0.00571910000019
3.160011490950876,0.0058212553881566
3.1887388681413387,0.0057577404570405
3.217466245331801,0.0057939618764387
3.2461936225222634,0.0058366352948236
3.274920999712726,0.0056911771267481
3.303648376903189,0.0056294230062444
3.332375754093651,0.0057612100194206
3.3611031312841133,0.0057807373005384
3.389830508474576,0.0056270163960053
3.4185578856650385,0.0054429049047948
3.447285262855501,0.0055549709064828
3.4760126400459637,0.0056382979639624
3.504740017236426,0.0061417773955748
3.5334673944268884,0.0056130859950215
3.562194771617351,0.005511981917482
3.5909221488078136,0.005890325617401
3.619649525998276,0.0056915314058458
3.648376903188739,0.0056311975685663
3.677104280379201,0.005906902168791
3.705831657569663,0.0056592585635416
3.7345590347601263,0.0051369952054813
3.7632864119505887,0.0056658606555811
3.792013789141051,0.0055552219663612
3.820741166331514,0.0053307812892926
3.849468543521976,0.0056165050660371
3.8781959207124386,0.0055204502636569
3.9069232979029014,0.0053566209425166
3.935650675093364,0.0057342764534168
3.964378052283826,0.0056581685844678
3.993105429474289,0.0054852644244865
4.021832806664751,0.0060203744820106
4.050560183855214,0.0059126579195424
4.0792875610456765,0.0057253332792802
4.108014938236138,0.0058253618985326
4.136742315426601,0.0057387982453706
4.165469692617064,0.0055383697438052
4.194197069807526,0.0056872301482053
4.222924446997989,0.0064846683154446
4.251651824188452,0.0062155640093727
4.2803792013789135,0.0059479757054554
4.309106578569376,0.0060020526883116
4.337833955759839,0.0061834948438
4.366561332950301,0.0059517173043118
4.395288710140764,0.0062423108936867
4.424016087331227,0.0059578267515802
4.452743464521689,0.0056850478778156
4.481470841712151,0.0057935032173745
4.510198218902614,0.0058790878412076
4.538925596093076,0.0057377923008781
4.567652973283539,0.0056994432772155
4.596380350474002,0.0057472197102255
4.625107727664464,0.0056536059306733
4.6538351048549265,0.0056601475653954
4.682562482045389,0.0059842709859587
4.711289859235851,0.0058732383112489
4.740017236426314,0.0057519698761406
4.768744613616777,0.0062231449841869
4.797471990807239,0.0061496690218614
4.8261993679977016,0.0061524569215924
4.854926745188164,0.006478717583064
4.883654122378626,0.006589948897399
4.912381499569089,0.0062141168424195
4.941108876759552,0.0063326046439388
4.969836253950014,0.0064254120757505
4.998563631140477,0.0063544158483789
5.0272910083309394,0.0059270828615813
5.056018385521401,0.0051159440499811
5.084745762711864,0.0063585442619877
5.113473139902327,0.0058012249078508
5.142200517092789,0.0065396571044471
5.170927894283252,0.0055322737624489
5.199655271473714,0.0045757758172188
5.2283826486641765,0.0077707110145003
5.257110025854639,0.0096644033352569
5.285837403045101,0.0127280629380366
5.314564780235564,0.0231919477018672
5.343292157426027,0.0242577196701732
5.372019534616489,0.0238966563141581
5.4007469118069515,0.0266652881810169
5.429474288997414,0.0273380176063016
5.458201666187876,0.0243165005591625
5.486929043378339,0.0255162904238661
5.515656420568802,0.0280028039171043
5.544383797759264,0.0209055229605295
5.573111174949727,0.0173730697083957
5.601838552140189,0.0111305322092606
5.630565929330651,0.0095329632908787
5.659293306521114,0.009510937643741
5.688020683711577,0.0088402818710998
5.716748060902039,0.0071839342298101
5.745475438092502,0.006662879984711
5.7742028152829645,0.0068014210008445
5.8029301924734265,0.0066970123846674
5.831657569663889,0.0069776380084674
5.860384946854352,0.0069671662490529
5.889112324044814,0.006605612906818
5.917839701235277,0.0070163679095677
5.94656707842574,0.0071556084440434
5.9752944556162015,0.0067512422380065
6.004021832806664,0.0070631104181306
6.032749209997127,0.0096444610682649
6.061476587187589,0.0049073446823055
6.090203964378052,0.0069671942134097
6.118931341568515,0.0070075143927088
6.147658718758977,0.0065750178937846
6.176386095949439,0.0060162727799848
6.205113473139902,0.007259457487792
6.233840850330364,0.0067052436763369
6.262568227520827,0.0049260851912162
6.29129560471129,0.0062435840368638
6.320022981901752,0.0061941094559702
6.3487503590922145,0.0062410912704596
6.377477736282677,0.0061271861841311
6.406205113473139,0.0059939635847995
6.434932490663602,0.005638884558786
6.463659867854065,0.0055324105060976
6.492387245044527,0.0064965676068757
6.52111462223499,0.0064628281226407
6.549841999425452,0.0063987434742329
6.578569376615914,0.0064616646048787
6.607296753806377,0.0066757860476536
6.636024130996839,0.0064915828557263
6.664751508187302,0.0077094644292687
6.693478885377765,0.0061947328147647
6.722206262568227,0.006461017135525
6.750933639758689,0.0066925572940104
6.779661016949152,0.0064542987474463
6.808388394139614,0.006360383203652
6.837115771330077,0.0060375914861859
6.86584314852054,0.0059843421874652
6.894570525711002,0.0055674454059223
6.9232979029014645,0.0058299145936931
6.952025280091927,0.0058613787507692
6.980752657282389,0.0051071853395994
7.009480034472852,0.0055518681694195
7.038207411663315,0.0054968855202944
7.066934788853777,0.0055894725607422
7.09566216604424,0.0059975531938132
7.124389543234702,0.0064371172190317
7.153116920425164,0.0065825885932746
7.181844297615627,0.0064885934181077
7.21057167480609,0.0064482951081286
7.239299051996552,0.0066056866482265
7.268026429187015,0.006855697061402
7.296753806377477,0.0068034195866911
7.325481183567939,0.0064677926608026
7.354208560758402,0.0063347165072399
7.382935937948865,0.0065947357047475
7.411663315139327,0.0065373243814553
7.44039069232979,0.0064766776530945
7.469118069520253,0.0063422762391127
7.497845446710715,0.0064023530494884
7.526572823901177,0.0064240331736351
7.55530020109164,0.0064659706454502
7.584027578282102,0.0066171290023699
7.612754955472565,0.006261714807079
7.641482332663028,0.0063328413879833
7.67020970985349,0.0063800020869603
7.698937087043952,0.0063200210425989
7.727664464234415,0.0060916483750777
7.756391841424877,0.0060455108080419
7.78511921861534,0.0061216570108235
7.813846595805803,0.0061508211742424
7.842573972996265,0.0060806171434832
7.871301350186728,0.0059977928859482
7.90002872737719,0.0059685168007522
7.928756104567652,0.005979081790815
7.957483481758115,0.0059073566602753
7.986210858948578,0.0057932214581809
8.01493823613904,0.0058751136621528
8.043665613329502,0.0056825561459889
8.072392990519965,0.0056611984035936
8.101120367710427,0.0055919145756858
8.12984774490089,0.0055682891132087
8.158575122091353,0.005659552936825
8.187302499281815,0.00574998518374
8.216029876472277,0.0057192713772885
8.24475725366274,0.0059239437776365
8.273484630853202,0.0061765574840326
8.302212008043664,0.0059888004236601
8.330939385234128,0.0061425627190954
8.35966676242459,0.0063683967303641
8.388394139615052,0.0056221202013102
8.417121516805516,0.0054963217708914
8.445848893995977,0.0067782870777532
8.47457627118644,0.0058838380150599
8.503303648376903,0.0058420968712052
8.532031025567365,0.0059501924636594
8.560758402757827,0.0060905882991052
8.58948577994829,0.0060009657969138
8.618213157138753,0.0059738855119597
8.646940534329215,0.0067262323633723
8.675667911519678,0.0067912603455729
8.70439528871014,0.006351625167263
8.733122665900602,0.006416984158496
8.761850043091066,0.0063565095576993
8.790577420281528,0.00615009045706
8.81930479747199,0.005801406685405
8.848032174662453,0.0068196156971407
8.876759551852915,0.0058837968204754
8.905486929043377,0.0059694057592239
8.93421430623384,0.0064460086207165
8.962941683424303,0.006868883121295
8.991669060614765,0.0059095204219079
9.020396437805228,0.0070349426050386
9.04912381499569,0.0069451021933482
9.077851192186152,0.0068376146857211
9.106578569376616,0.0068899317604294
9.135305946567078,0.0063773110944454
9.16403332375754,0.0064151698761495
9.192760700948003,0.0063190384340483
9.221488078138464,0.0063030824372917
9.250215455328927,0.0055188461886122
9.278942832519393,0.0096232270215791
9.307670209709851,0.0104436322508961
9.336397586900317,0.0149910574780226
9.36512496409078,0.0171944503858312
9.39385234128124,0.0189354280208194
9.422579718471702,0.0219127482573486
9.451307095662166,0.0228852427002075
9.480034472852628,0.0231758933126901
9.50876185004309,0.0185055854068375
9.537489227233554,0.0233758363349123
9.566216604424016,0.0196312588309637
9.594943981614476,0.018038708837058968
9.62367135880494,0.0184214233881458
9.652398735995405,0.0165034367426599
9.681126113185863,0.0117947123188346
9.709853490376329,0.010454784009208
9.73858086756679,0.0091543647576127
9.767308244757253,0.0099729987818586
9.796035621947716,0.0097662340243123
9.824762999138178,0.011716823485727
9.85349037632864,0.00655452731363
9.882217753519104,0.0085055690269677
9.910945130709566,0.0090171985297027
9.939672507900028,0.008337096079382
9.968399885090491,0.0087547464460585
9.997127262280951,0.0082489677299299
10.025854639471415,0.0085361753290232
10.05458201666188,0.0094463490996579
10.08330939385234,0.0074561902028279
10.112036771042805,0.0072927103867834
10.140764148233266,0.0076349608350242
10.169491525423728,0.0072825573587986
10.19821890261419,0.0066756314855318
10.226946279804654,0.0068499707860968
10.255673656995116,0.0066851709476062
10.284401034185578,0.0066267970572552
10.31312841137604,0.0069691826455538
10.341855788566503,0.0068766923154148
10.370583165756964,0.0065076917937158
10.399310542947427,0.00642916205167
10.428037920137893,0.0060610121764677
10.456765297328351,0.0062511037453066
10.485492674518817,0.0068006270118233
10.51422005170928,0.0066618505764012
10.54294742889974,0.0061072861156669
10.571674806090202,0.0064424730586508
10.600402183280666,0.0068539307083275
10.629129560471128,0.0065534535434446
10.65785693766159,0.0069595814440006
10.686584314852054,0.0063115711921707
10.715311692042516,0.0066712476691501
10.744039069232976,0.0069803980575959
10.77276644642344,0.0068834816099805
10.801493823613905,0.0072376978705883
10.830221200804363,0.0063244826988359
10.858948577994829,0.0068284314640504
10.88767595518529,0.0079557881296311
10.916403332375753,0.0084966726457126
10.945130709566216,0.0081867361642561
10.973858086756678,0.0079177757667151
11.00258546394714,0.0087473491199599
11.031312841137604,0.0090972417809162
11.060040218328066,0.0089697111265186
11.088767595518528,0.0090296804772613
11.117494972708991,0.0103497769692271
11.146222349899451,0.0095218312365936
11.174949727089915,0.0086049165426848
11.20367710428038,0.0088020909039118
11.23240448147084,0.0086043508866057
11.261131858661305,0.0095375319535119
11.289859235851766,0.0102568853992907
11.318586613042228,0.0117729257518192
11.34731399023269,0.0096146341854292
11.376041367423154,0.0091646226877479
11.404768744613616,0.0094978803852969
11.433496121804078,0.0102309368418438
11.462223498994542,0.0117457556710782
11.490950876185003,0.0103453106327539
11.519678253375464,0.0093223268594605
11.548405630565927,0.009347901600306
11.577133007756393,0.0089157502725468
11.605860384946851,0.0078823519702211
11.634587762137317,0.0085201445158676
11.66331513932778,0.0083405135469261
11.69204251651824,0.0072881038944683
11.720769893708704,0.0066942710665399
11.749497270899166,0.0069683013458634
11.778224648089628,0.0068990176063651
11.806952025280092,0.0071608422215972
11.835679402470554,0.0068244207016486
11.864406779661016,0.0066258934803777
11.89313415685148,0.0068769304586593
11.92186153404194,0.0068167427839949
11.950588911232405,0.0067382009677016
11.979316288422869,0.0068501496176713
12.008043665613329,0.0066566319477741
12.03677104280379,0.0063174345832746
12.065498419994254,0.0065093378945073
12.094225797184716,0.0068991654289184
12.122953174375178,0.0063871014309935
12.151680551565642,0.0067267346177505
12.180407928756104,0.0060120731994126
12.209135305946566,0.0064534085889758
12.23786268313703,0.0062277289746188
12.266590060327491,0.0066045800879571
12.295317437517951,0.0064896001168349
12.324044814708415,0.0061977642675866
12.35277219189888,0.0063166750295537
12.38149956908934,0.0063278593599297
12.410226946279804,0.0062927994298512
12.438954323470266,0.0061776106141779
12.467681700660728,0.0059357125349125
12.496409077851192,0.005909813623628
12.525136455041654,0.0065596147114093
12.553863832232116,0.0066668457620037
12.58259120942258,0.0065754002176684
12.611318586613042,0.0065346519007923
12.640045963803503,0.0071240595160716
12.668773340993967,0.0055325036505185
12.697500718184427,0.0061207510128147
12.726228095374893,0.0065407898234668
12.754955472565356,0.0061353934971411
12.783682849755817,0.0059863545031918
12.81241022694628,0.0069643316878822
12.841137604136742,0.0071300039196497
12.869864981327204,0.0072659420354922
12.898592358517666,0.007939262075664
12.92731973570813,0.0082705421232006
12.956047112898592,0.0074401573355467
12.984774490089054,0.0079118969928098
13.013501867279516,0.0074382242746767
13.04222924446998,0.0067460509366805
13.07095662166044,0.0071717235991772
13.099683998850905,0.0066320128620596
13.128411376041369,0.0063712961329483
13.157138753231829,0.0064411698676237
13.185866130422292,0.0066910353126282
13.214593507612754,0.0066056201919284
13.243320884803216,0.0067171575273359
13.272048261993678,0.0069735784162273
13.300775639184142,0.0069799983928544
13.329503016374604,0.0073633733234868
13.358230393565066,0.009951517751777
13.38695777075553,0.0104309481896409
13.415685147945991,0.0157589875030019
13.444412525136451,0.0176952717740572
13.473139902326915,0.018961901490994
13.50186727951738,0.0217767067426346
13.53059465670784,0.0257884864031057
13.559322033898304,0.027857623207874
13.588049411088766,0.0266104413247455
13.616776788279228,0.0244669998445632
13.645504165469692,0.0285371776104078
13.674231542660154,0.0229717267686533
13.702958919850616,0.0151559108468894
13.73168629704108,0.0191658740449155
13.76041367423154,0.0164589435645384
13.789141051422003,0.0127062189111085
13.817868428612467,0.0125323245896802
13.846595805802927,0.0133380133283347
13.875323182993393,0.0104830651821499
13.904050560183856,0.0094821887129899
13.932777937374317,0.0102990451713049
13.96150531456478,0.0105467743890069
13.990232691755242,0.0095585273238547
14.018960068945704,0.0092898562386953
14.047687446136166,0.0095073234901284
14.07641482332663,0.0093882494356288
14.105142200517092,0.0097785350703361
14.133869577707554,0.0091224651271542
14.162596954898016,0.0077854179773471
14.19132433208848,0.007767080390246
14.22005170927894,0.0077787473543208
14.248779086469405,0.0073448127401452
14.277506463659869,0.007948474573676
14.306233840850329,0.0080920829439727
14.334961218040792,0.0072464352160338
14.363688595231254,0.0079075325255113
14.392415972421716,0.0085885311466576
14.42114334961218,0.0085653633852592
14.449870726802642,0.0088281728223867
14.478598103993104,0.0091472419496601
14.507325481183567,0.0090511793112653
14.53605285837403,0.0088590926105897
14.564780235564491,0.0091227364238368
14.593507612754957,0.0083025576376194
14.622234989945415,0.0076541173263556
14.65096236713588,0.0078930102534315
14.679689744326344,0.0073601569565423
14.708417121516804,0.0074633033783804
14.737144498707266,0.0076472423612208
14.76587187589773,0.0075754984261785
14.794599253088192,0.0072254383982612
14.823326630278654,0.0076164306806278
14.852054007469118,0.006502341286962
14.88078138465958,0.0066796954537103
14.90950876185004,0.0065601327616718
14.938236139040503,0.0078819492589517
14.966963516230969,0.0095140110494721
14.995690893421427,0.0103410305988127
15.024418270611893,0.0100892108340594
15.053145647802356,0.0098149249508617
15.081873024992817,0.0105083540562229
15.11060040218328,0.011501254985109
15.139327779373742,0.0112705045090812
15.168055156564204,0.0112805659045556
15.196782533754668,0.0100975631898619
15.22550991094513,0.0084996463564383
15.254237288135592,0.0088169467506453
15.282964665326055,0.0111445027170131
15.311692042516515,0.0045784710566584
15.34041941970698,0.0071477065350976
15.369146796897445,0.0088190968545032
15.397874174087905,0.0072299497665354
15.426601551278369,0.0072201836770284
15.45532892846883,0.010497598644824
15.484056305659292,0.0085967401255685
15.512783682849754,0.0081509459649593
15.541511060040218,0.0085520379099047
15.57023843723068,0.0087937434013169
15.598965814421142,0.0080453996188477
15.627693191611606,0.0080904672262719
15.656420568802067,0.0087664154054494
15.68514794599253,0.007643988984872
15.713875323182991,0.0064343852127741
15.742602700373457,0.0076092497693694
15.771330077563915,0.0071697961096266
15.80005745475438,0.0071446702660025
15.828784831944844,0.0073011960732892
15.857512209135304,0.0073860044215475
15.886239586325768,0.0059561678288006
15.91496696351623,0.0096242559002642
15.943694340706692,0.0077591607569616
15.972421717897156,0.006015745848794
16.001149095087616,0.0094310137286032
16.02987647227808,0.0080722774701433
16.058603849468543,0.0074228938929097
16.087331226659003,0.0080071197457597
16.116058603849467,0.0079104449021994
16.14478598103993,0.0072317210717485
16.17351335823039,0.0068870408151799
16.202240735420855,0.007792663682346
16.23096811261132,0.0062321974983974
16.25969548980178,0.0066868779663603
16.288422866992242,0.0075980242903872
16.317150244182706,0.0071542253687193
16.345877621373166,0.0068528845769953
16.37460499856363,0.0071387888546161
16.403332375754093,0.0071849285228557
16.432059752944554,0.0069836211179917
16.460787130135017,0.0072070214376934
16.48951450732548,0.0067298011020433
16.51824188451594,0.0062000716754306
16.546969261706405,0.0062326835082613
16.57569663889687,0.0067878740332437
16.60442401608733,0.0062677292687917
16.633151393277792,0.0064765225053528
16.661878770468256,0.0068219906693811
16.690606147658716,0.0066114196020884
16.71933352484918,0.0069548855985579
16.748060902039644,0.0073680212425635
16.776788279230104,0.0072072500489365
16.805515656420567,0.0067983218547412
16.83424303361103,0.0069183865426432
16.86297041080149,0.0067679932594904
16.891697787991955,0.0066371502352153
16.92042516518242,0.0070901546149123
16.94915254237288,0.0078844017621286
16.977879919563343,0.0078119632814419
17.006607296753806,0.0073021042203775
17.035334673944266,0.0082401593098259
17.06406205113473,0.0078285370805175
17.092789428325194,0.0071023871077886
17.121516805515654,0.0076045922455153
17.150244182706118,0.0072753682202465
17.17897155989658,0.0067136605952226
17.20769893708704,0.0068828048817514
17.236426314277505,0.0067525888002469
17.26515369146797,0.0066848764685096
17.29388106865843,0.007084832030454
17.322608445848893,0.0065690451058495
17.351335823039356,0.0074685775675504
17.380063200229817,0.0074771852843294
17.40879057742028,0.0072047559508861
17.437517954610744,0.0068044436969682
17.466245331801204,0.008828647018977
17.494972708991668,0.0129738399149289
17.52370008618213,0.0153731197054818
17.55242746337259,0.0220798154885715
17.581154840563055,0.020485396111938
17.60988221775352,0.0249428662283131
17.63860959494398,0.0242869631336083
17.667336972134443,0.0233055903624867
17.696064349324907,0.0247687754054412
17.724791726515367,0.025293088601489
17.75351910370583,0.0181993779753848
17.782246480896294,0.0192588372942153
17.810973858086754,0.0170233557781567
17.839701235277218,0.0141051017486005
17.86842861246768,0.0130600738312796
17.897155989658142,0.0124372231629107
17.925883366848606,0.0109548572106606
17.95461074403907,0.0111029893058413
17.98333812122953,0.009754546031238
18.012065498419993,0.0083536457946075
18.040792875610457,0.0087315033061317
18.069520252800917,0.0087009275055641
18.09824762999138,0.0077049437770623
18.126975007181844,0.0075467337968824
18.155702384372304,0.008025626182827
18.184429761562768,0.0084331299259491
18.213157138753232,0.008404490578009
18.241884515943692,0.0083645128816555
18.270611893134156,0.0083912580394442
18.29933927032462,0.0084007486352861
18.32806664751508,0.0085339946870749
18.356794024705543,0.0082013465864729
18.385521401896007,0.008559756223179
18.414248779086467,0.008577808646435
18.44297615627693,0.0074590067006734
18.47170353346739,0.0079091065626891
18.500430910657855,0.007982737102442
18.52915828784832,0.0072945493417894
18.557885665038786,0.0109127893583214
18.58661304222924,0.0014407849181651
18.615340419419702,0.0071250377047306
18.64406779661017,0.0067802857884713
18.67279517380063,0.0069751433367765
18.701522550991093,0.007281300791841
18.730249928181557,0.0070312041869666
18.758977305372017,0.0074595458353123
18.78770468256248,0.0072507622161169
18.816432059752945,0.0074328600343963
18.845159436943405,0.0074540703117518
18.87388681413387,0.0055470796832102
18.902614191324332,0.0089168953355439
18.931341568514792,0.0067815923271122
18.960068945705256,0.0083799182850736
18.98879632289572,0.0075374248561704
19.01752370008618,0.0069720480354511
19.046251077276644,0.0078207480657948
19.074978454467107,0.0079670123378016
19.103705831657567,0.0075289373247812
19.13243320884803,0.0077599966335694
19.161160586038495,0.0077289799760335
19.189887963228955,0.0072965783976374
19.21861534041942,0.0071948717384436
19.24734271760988,0.0072274482459086
19.276070094800343,0.0069870668872
19.30479747199081,0.0066423718871799
19.33352484918127,0.0065341055650626
19.36225222637173,0.0065687282663982
19.390979603562194,0.0066846719747247
19.419706980752657,0.0067865037573777
19.44843435794312,0.0066831665019328
19.47716173513358,0.0065059362702587
19.505889112324045,0.0067339467572618
19.534616489514505,0.0069257096147968
19.56334386670497,0.0067562155555977
19.592071243895433,0.0071359592033509
19.620798621085893,0.0072467630978423
19.649525998276356,0.0063423484054622
19.67825337546682,0.0070737767797894
19.70698075265728,0.0076075214390568
19.735708129847744,0.0068937071824997
19.764435507038208,0.0065996527059351
19.793162884228668,0.0072013535130681
19.82189026141913,0.007188426625866
19.850617638609595,0.0064510372289427
19.879345015800055,0.0075085788303083
19.90807239299052,0.0072525811296536
19.936799770180983,0.0069625578807118
19.965527147371443,0.0071593226343104
19.994254524561907,0.0074664579327424
20.02298190175237,0.0071096750016492
20.05170927894283,0.0072998825469443
20.080436656133298,0.0076150134408789
20.10916403332376,0.0071981705606215
20.137891410514214,0.0071436342615693
20.16661878770468,0.0085245799319489
20.195346164895145,0.005999702335637
20.224073542085605,0.0065845649177409
20.25280091927607,0.0071757639893062
20.281528296466533,0.0070730123687159
20.310255673656993,0.0068982419196835
20.338983050847457,0.0064062329419681
20.36771042803792,0.0076164821397444
20.39643780522838,0.0076724720489484
20.425165182418844,0.006905264440615
20.453892559609308,0.0072707809652301
20.482619936799768,0.0069713176343777
20.511347313990232,0.0076905081321646
20.540074691180696,0.0079206688566268
20.568802068371156,0.0057776762870891
20.59752944556162,0.0069426294548235
20.62625682275208,0.0073489467644395
20.654984199942543,0.0063288640691154
20.683711577133007,0.0062523764312646
20.712438954323467,0.0082040487552527
20.74116633151393,0.0046414350086267
20.76989370870439,0.0075034929865838
20.798621085894855,0.0078960589143741
20.82734846308532,0.0071352109791452
20.856075840275786,0.007074628146097
20.88480321746624,0.0071850739529996
20.913530594656702,0.0072038693203981
20.94225797184717,0.0070980479903495
20.97098534903763,0.0070124528098409
20.999712726228093,0.0066988040950166
21.028440103418557,0.0055303119586817
21.057167480609017,0.0066611843162561
21.08589485779948,0.0065979001773503
21.114622234989945,0.0061338248533735
21.143349612180405,0.0062327125691676
21.17207698937087,0.0066830433030004
21.200804366561332,0.0065619790924349
21.229531743751792,0.006241714877758
21.258259120942256,0.0065673345130588
21.28698649813272,0.0063356689950978
21.31571387532318,0.005831117112769
21.344441252513644,0.0076999216540309
21.373168629704107,0.0086994960925775
21.401896006894567,0.0107302077069005
21.43062338408503,0.0118937671486735
21.459350761275495,0.013961959313549
21.488078138465955,0.0156778995054506
21.51680551565642,0.0161217742161468
21.54553289284688,0.0160690571359338
21.574260270037342,0.016235469018864
21.60298764722781,0.0158662307716892
21.63171502441827,0.0146427404661963
21.66044240160873,0.0135155280605975
21.689169778799194,0.0109316653560641
21.717897155989657,0.0090119222789737
21.74662453318012,0.0084718643900959
21.77535191037058,0.0078188211771477
21.804079287561045,0.0081794597819763
21.832806664751505,0.0079145034446094
21.86153404194197,0.0072253844386948
21.890261419132433,0.007461593625929
21.918988796322893,0.0068047640152749
21.947716173513356,0.0071780471611313
21.97644355070382,0.0080000240714995
22.00517092789428,0.0070938199520142
22.033898305084744,0.0069342630719834
22.062625682275208,0.0078991087163691
22.091353059465668,0.005971033439185
22.12008043665613,0.00665385478029
22.148807813846595,0.0070832477558456
22.177535191037055,0.0066383320734158
22.20626256822752,0.0068176840327749
22.234989945417983,0.0070424932126306
22.263717322608443,0.0070074399573601
22.292444699798907,0.007062722109563
22.32117207698937,0.0070974596969627
22.34989945417983,0.0070356277329226
22.378626831370298,0.0073076084288813
22.40735420856076,0.0076085144909321
22.436081585751214,0.0073391091399646
22.46480896294168,0.0069055204224114
22.493536340132145,0.0072416001691109
22.522263717322605,0.0072064228781368
22.55099109451307,0.0070041183707733
22.579718471703533,0.0073254719099327
22.608445848893993,0.0070096573154021
22.637173226084457,0.0065683628452962
22.66590060327492,0.0067530584030505
22.69462798046538,0.0067933075866469
22.723355357655844,0.0064978780439185
22.752082734846308,0.0065646504695525
22.780810112036768,0.0067800467120313
22.809537489227232,0.0066077064055704
22.838264866417695,0.0065368275468641
22.866992243608156,0.0066015252472274
22.89571962079862,0.0064752258197679
22.924446997989083,0.0065346887558985
22.953174375179543,0.006681724517357
22.981901752370007,0.006596104235567
23.01062912956047,0.0064943698867045
23.03935650675093,0.0065664835305465
23.06808388394139,0.0069263707884458
23.096811261131855,0.0067606149566777
23.12553863832232,0.0069545174222148
23.154266015512786,0.0070375502342381
23.18299339270325,0.0067599758769024
23.211720769893702,0.0068287602659054
23.24044814708417,0.0088101179229152
23.269175524274633,0.0089403554612492
23.297902901465093,0.0090873197598266
23.326630278655557,0.0090470723755047
23.35535765584602,0.0085891711001678
23.38408503303648,0.0090605943093207
23.412812410226945,0.0106933220117671
23.44153978741741,0.0074766538231225
23.47026716460787,0.0063274139831515
23.498994541798332,0.0068021561436552
23.527721918988796,0.0064376603520656
23.556449296179256,0.006240969793942
23.58517667336972,0.0066690933089648
23.613904050560183,0.0064630646659432
23.642631427750644,0.0062630215728548
23.671358804941107,0.0065186546317703
23.70008618213157,0.0065409662394233
23.72881355932203,0.0063501128105115
23.757540936512495,0.0064135063018816
23.78626831370296,0.006417287124191
23.81499569089342,0.0060692488630082
23.84372306808388,0.0059756362591728
23.872450445274342,0.0063313214122864
23.90117782246481,0.006731901743917
23.92990519965527,0.0068490978414719
23.958632576845737,0.0069868490783185
23.987359954036194,0.0069193593973
24.016087331226657,0.0068085394029692
24.04481470841712,0.0069917060974648
24.07354208560758,0.0066114466100219
24.102269462798045,0.0052750109908252
24.13099683998851,0.007468396528888
24.15972421717897,0.0073745806008064
24.188451594369432,0.0064113613638138
24.217178971559896,0.0063168793483349
24.245906348750356,0.006318256782238
24.27463372594082,0.0062261110710264
24.303361103131284,0.0060877598166807
24.332088480321744,0.0061339329490305
24.360815857512208,0.0060777589672634
24.38954323470267,0.0060549576024759
24.41827061189313,0.0066604960125186
24.446997989083595,0.0071754992481528
24.47572536627406,0.0070749369042806
24.50445274346452,0.007097486148609
24.533180120654983,0.0072436331319074
24.561907497845446,0.007396743290194
24.590634875035907,0.0074287791926059
24.61936225222637,0.0070600078174083
24.64808962941683,0.0064683083171385
24.676817006607298,0.0062560968060363
24.70554438379776,0.0064174344942381
24.73427176098822,0.0064400438039354
24.76299913817868,0.0062422205956121
24.791726515369145,0.0060899412392731
24.82045389255961,0.0061891461790402
24.84918126975007,0.006387752254723
24.877908646940533,0.0065888954517487
24.906636024130997,0.006767032998109
24.935363401321457,0.0068940616077275
24.96409077851192,0.0068633213214948
24.992818155702384,0.0070603494439453
25.021545532892844,0.0071337395811596
25.050272910083308,0.0067819129714203
25.07900028727377,0.0067944001731378
25.10772766446423,0.0068910528202998
25.136455041654695,0.0068701516058183
25.16518241884516,0.006990856432909
25.19390979603562,0.0067526188917874
25.222637173226083,0.0065399380035958
25.251364550416547,0.0070028330153657
25.280091927607007,0.0066390665479011
25.30881930479747,0.0067004258967178
25.337546681987934,0.0062560313619734
25.36627405917839,0.0063186343364167
25.395001436368855,0.0091994551805963
25.42372881355932,0.0115249375485613
25.452456190749785,0.0182974926608307
25.48118356794025,0.0207215091367067
25.50991094513071,0.0218087832202691
25.53863832232117,0.0226374608323331
25.567365699511633,0.0234146911264661
25.596093076702097,0.0232354911188611
25.624820453892557,0.0232162252000896
25.65354783108302,0.0221564977017164
25.682275208273484,0.0228257220875499
25.711002585463945,0.0064665346308956
25.73972996265441,0.0083739725867203
25.768457339844872,0.0108691418918967
25.797184717035332,0.009028351124782
25.825912094225796,0.0091635641832435
25.85463947141626,0.0086017211968871
25.88336684860672,0.0074835935001221
25.912094225797183,0.0070771796041298
25.940821602987647,0.0074192990783808
25.969548980178107,0.0074046997465748
25.99827635736857,0.0073125135018283
26.027003734559035,0.0074924733750271
26.055731111749495,0.007233215481135
26.08445848893996,0.0071302239787034
26.113185866130426,0.0072711943168926
26.14191324332088,0.0073090485658989
26.170640620511342,0.0076074501845198
26.19936799770181,0.0075379076087837
26.22809537489227,0.0070709715778201
26.256822752082737,0.0072845695813568
26.285550129273197,0.0072141271619286
26.314277506463657,0.0069097581111261
26.34300488365412,0.0070499917142276
26.371732260844585,0.0069925666128175
26.400459638035045,0.0064953913031645
26.42918701522551,0.0068904721748184
26.457914392415972,0.0072000293200756
26.486641769606432,0.0069624018602528
26.515369146796896,0.0069629020571452
26.544096523987356,0.0070177729739668
26.57282390117782,0.0069924786309551
26.601551278368284,0.0068027968002736
26.630278655558744,0.0069488596676419
26.659006032749208,0.0069835467846097
26.68773340993967,0.0065533052243283
26.71646078713013,0.0067652344454154
26.745188164320595,0.0069611765035352
26.77391554151106,0.0067174917988328
26.80264291870152,0.006918049737708
26.831370295891983,0.0067727784041572
26.860097673082446,0.0068242998744535
26.888825050272903,0.0067278510180981
26.91755242746337,0.0065529523909821
26.94627980465383,0.006372298761101
26.975007181844298,0.0063367247403817
27.00373455903476,0.0068200896419196
27.03246193622522,0.0068541493573658
27.06118931341568,0.0064286018553673
27.089916690606145,0.007559623151271
27.11864406779661,0.0071428744777099
27.14737144498707,0.0068344393640301
27.176098822177533,0.0069281097029538
27.204826199367997,0.0070678379083525
27.233553576558457,0.0069992790370387
27.26228095374892,0.0070690747666203
27.291008330939384,0.0070849217145255
27.319735708129844,0.0071272677427075
27.348463085320308,0.0069305923490965
27.37719046251077,0.0068867365850528
27.40591783970123,0.0070614933730356
27.434645216891695,0.0068287680730571
27.46337259408216,0.0066841732970851
27.49209997127262,0.0065723417399905
27.520827348463083,0.0063346980911865
27.549554725653547,0.0063082868414525
27.578282102844007,0.0064609874431802
27.60700948003447,0.0065898230668312
27.635736857224934,0.0071149269804797
27.66446423441539,0.0073783678784858
27.693191611605855,0.0071438552054263
27.72191898879632,0.0072619394852065
27.750646365986785,0.0073289205071494
27.77937374317725,0.0070604003620735
27.80810112036771,0.0070511183549657
27.83682849755817,0.0068420952515731
27.865555874748633,0.0063928848383575
27.894283251939097,0.0061055771052598
27.923010629129557,0.0063416755786703
27.95173800632002,0.0061826486024031
27.980465383510484,0.0062146907738843
28.009192760700945,0.0063340729322784
28.03792013789141,0.0062808743115444
28.066647515081872,0.0063786882890912
28.095374892272332,0.0067670114767342
28.124102269462796,0.0067646094039798
28.15282964665326,0.0063894099208296
28.18155702384372,0.0064554815796111
28.210284401034183,0.0065938562230739
28.239011778224647,0.0063318688466777
28.267739155415107,0.0063597131729744
28.29646653260557,0.0063142561239281
28.325193909796035,0.0060268187008436
28.353921286986495,0.0060647787871397
28.38264866417696,0.0061982082648417
28.411376041367426,0.006245307561737
28.44010341855788,0.0065052370867174
28.468830795748342,0.0066515126165681
28.49755817293881,0.0068784628138784
28.52628555012927,0.0063003322807267
28.555012927319737,0.0063990461089825
28.583740304510197,0.0068245742364228
28.612467681700657,0.0065728448279264
28.64119505889112,0.0066153110957923
28.669922436081585,0.0066077761584095
28.698649813272045,0.00623295524765
28.72737719046251,0.0062588159810848
28.756104567652972,0.0064149785663573
28.784831944843432,0.0062296890787397
28.813559322033896,0.0059108750155523
28.84228669922436,0.0064517167014961
28.87101407641482,0.0061576279908443
28.899741453605284,0.0062839872951042
28.928468830795747,0.0062275713021517
28.957196207986208,0.0063853631254086
28.98592358517667,0.006338104334467
29.014650962367135,0.0062573115670292
29.043378339557595,0.0065864638731221
29.07210571674806,0.0063671549182996
29.10083309393852,0.0066107760957982
29.129560471128983,0.0065047534129606
29.158287848319446,0.0064197114638297
29.18701522550991,0.0069277855520783
29.21574260270037,0.0068729035559413
29.24446997989083,0.0059204158132002
29.273197357081298,0.0064621161882273
29.30192473427176,0.0064672936002256
29.33065211146222,0.0062840545084817
29.359379488652685,0.0066398220014506
29.388106865843145,0.0067629439561621
29.41683424303361,0.0065044623771573
29.445561620224073,0.0066669068434134
29.474288997414533,0.006655726186782
29.503016374604996,0.0066183434815478
29.53174375179546,0.0074081582824711
29.56047112898592,0.0091296406679488
29.589198506176384,0.0100929323591668
29.617925883366848,0.0111663517587203
29.646653260557308,0.0136932488846764
29.67538063774777,0.0158635590933994
29.704108014938235,0.0171215255595948
29.732835392128695,0.0178626677048792
29.76156276931916,0.0173045282059041
29.790290146509623,0.0176705920690637
29.819017523700083,0.0189892115627184
29.847744900890547,0.0152413271828791
29.87647227808101,0.0138475600226313
29.90519965527147,0.0118036156272965
29.933927032461938,0.0117074936423739
29.9626544096524,0.0109243591889665
29.991381786842854,0.0104607939385622
30.02010916403332,0.0092737539144387
30.048836541223785,0.0077183774898037
30.07756391841425,0.0082488068210759
30.10629129560471,0.0078938043209071
30.135018672795173,0.0064276081287423
30.163746049985633,0.0078197682786184
30.192473427176097,0.0081496365857585
30.22120080436656,0.0069981672894388
30.24992818155702,0.007279827416863
30.278655558747484,0.0070256930271662
30.307382935937948,0.0069231414155807
30.336110313128408,0.0069972336712115
30.364837690318872,0.0064672143414128
30.393565067509336,0.0068547991963355
30.422292444699796,0.0072306528524238
30.45101982189026,0.006802760364707
30.479747199080723,0.00653447259456
30.508474576271183,0.0070146012218639
30.537201953461647,0.0075307775223424
30.56592933065211,0.0076099250424242
30.59465670784257,0.0076392194620806
30.623384085033035,0.0079129627886227
30.6521114622235,0.0074603207507493
30.68083883941396,0.0075565484594722
30.709566216604426,0.0078445840144721
30.73829359379489,0.006892366517302
30.767020970985342,0.0068580839469741
30.79574834817581,0.0069484112982143
30.824475725366273,0.0069711933936184
30.853203102556733,0.0064355499114155
30.881930479747197,0.0066808608066934
30.91065785693766,0.0068332488619718
30.93938523412812,0.0066216686153285
30.968112611318585,0.0066770474648213
30.99683998850905,0.0068015875616394
31.02556736569951,0.0065047168372443
31.054294742889972,0.0065326070338766
31.083022120080436,0.0067013709649339
31.111749497270896,0.0066859964659917
31.14047687446136,0.0066493301513247
31.169204251651824,0.0065852647986928
31.197931628842284,0.0064745909874824
31.226659006032747,0.0067652448917614
31.25538638322321,0.0070829517663336
31.28411376041367,0.0071532223913426
31.312841137604135,0.0070672711481899
31.3415685147946,0.0069973183963498
31.37029589198506,0.0073659160216088
31.39902326917552,0.0075955597066465
31.427750646365983,0.0074301046267968
31.456478023556446,0.0073412294550961
31.48520540074691,0.0070494962149531
31.513932777937377,0.0069397977250881
31.54266015512783,0.0069450638133242
31.571387532318298,0.0070665462038513
31.60011490950876,0.0070108715376531
31.62884228669922,0.0068410104848091
31.657569663889685,0.0069391709450666
31.68629704108015,0.0075015834120741
31.71502441827061,0.0067051170951483
31.743751795461073,0.0075873577896256
31.772479172651536,0.0075513508427363
31.801206549841996,0.0075366678639843
31.82993392703246,0.0075788926409455
31.858661304222924,0.0076788377872756
31.887388681413384,0.007392254140567
31.916116058603848,0.0072809891200911
31.94484343579431,0.007338142608791
31.97357081298477,0.007137449446641
32.00229819017523,0.0072490337692932
32.031025567365695,0.0071172265681941
32.05975294455616,0.0070516978072093
32.08848032174662,0.0069235957053552
32.11720769893709,0.0074348197461154
32.14593507612755,0.0065581759469055
32.17466245331801,0.0062770382434558
32.20338983050847,0.0069575752916808
32.232117207698934,0.0066938479788636
32.2608445848894,0.0059092384081725
32.28957196207986,0.0072755926778583
32.318299339270325,0.0074374671791043
32.34702671646078,0.00697743844108
32.375754093651246,0.0072255532218387
32.40448147084171,0.0072413394455805
32.43320884803217,0.0068094524317588
32.46193622522264,0.0070646150742711
32.4906636024131,0.0081578986333227
32.51939097960356,0.0064248528085652
32.54811835679402,0.0066225157720385
32.576845733984484,0.0072720115760187
32.60557311117495,0.0069660478246791
32.63430048836541,0.0070201096865541
32.663027865555875,0.0079712906754058
32.69175524274633,0.0075610529487103
32.720482619936796,0.0063848873054739
32.74920999712726,0.007450486588413
32.77793737431772,0.0075428001276343
32.80666475150819,0.0065168200008607
32.83539212869865,0.0068989191681206
32.86411950588911,0.0082778838739668
32.89284688307957,0.0070269219439615
32.921574260270035,0.0074400165966905
32.9503016374605,0.0072678801197025
32.97902901465096,0.0068199659254236
33.007756391841426,0.0068025900611354
33.03648376903188,0.0073695656421752
33.065211146222346,0.0062366610517741
33.09393852341281,0.006198096064422
33.12266590060327,0.0097866598156373
33.15139327779374,0.0056872930596925
33.1801206549842,0.0045938746151911
33.20884803217466,0.0067023113772365
33.23757540936512,0.0065580602370191
33.266302786555585,0.006694146497543
33.29503016374605,0.0066617858804666
33.32375754093651,0.0062136873620833
33.352484918126976,0.0061986657858628
33.38121229531743,0.0065831963846571
33.409939672507896,0.0065341488663145
33.43866704969836,0.0064111228446849
33.46739442688882,0.0064853348475601
33.49612180407929,0.006499198011941
33.52484918126975,0.0063356861851369
33.55357655846021,0.0064293375657057
33.58230393565067,0.0076391077449094
33.611031312841135,0.0092337938336258
33.6397586900316,0.0093860846034563
33.66848606722206,0.0128000665597814
33.697213444412526,0.016589485497267784
33.72594082160298,0.015463596051865784
33.754668198793446,0.01712675914519
33.78339557598391,0.0190351983382163
33.812122953174374,0.0178439821672829
33.84085033036484,0.0169680358136791
33.8695777075553,0.0158619857882229
33.89830508474576,0.0139340083840898
33.92703246193622,0.0122280170192207
33.955759839126685,0.0121064345871208
33.98448721631715,0.0104951336053086
34.01321459350761,0.0102617255324022
34.041941970698076,0.00797267546319
34.07066934788853,0.0064866023792566
34.099396725078996,0.0079874938128025
34.12812410226946,0.0083499121696802
34.156851479459924,0.0079792665890766
34.18557885665039,0.0081337251294481
34.21430623384085,0.008114714370949
34.24303361103131,0.0075498577025491
34.27176098822177,0.0080763098961848
34.300488365412235,0.0082099947394608
34.3292157426027,0.0083455798229015
34.35794311979316,0.0074669939201397
34.386670496983626,0.0067409987917634
34.41539787417408,0.0071763171062893
34.44412525136455,0.0070157949559198
34.47285262855501,0.0073308079069828
34.501580005745474,0.0071539609307015
34.53030738293594,0.0065839028406811
34.5590347601264,0.0069768657747172
34.58776213731686,0.0068071211761117
34.61648951450732,0.0066403466683261
34.645216891697785,0.0065889229038553
34.67394426888825,0.0064922461058082
34.70267164607871,0.0058120223561107
34.73139902326918,0.0068130195916532
34.76012640045963,0.0065964008775046
34.7888537776501,0.0061210921536964
34.81758115484056,0.0060370793063348
34.846308532031024,0.0063893250630935
34.87503590922149,0.0064073405134382
34.90376328641195,0.0062404434270445
34.93249066360241,0.0069608730636062
34.96121804079287,0.0067556132430062
34.989945417983336,0.006625677000586
35.0186727951738,0.0065819618877675
35.04740017236426,0.0068925567997517
35.07612754955473,0.0063491457183569
35.10485492674518,0.0082473141198666
35.13358230393565,0.0070339428028268
35.16230968112611,0.0068514008223329
35.191037058316574,0.0070077422132723
35.21976443550704,0.0069143778752934
35.2484918126975,0.0073006920397705
35.27721918988796,0.0070391066976315
35.30594656707842,0.007459879827845
35.334673944268886,0.005815776353583
35.36340132145935,0.0066248354877231
35.39212869864981,0.0067975705048339
35.42085607584027,0.0063907004154241
35.44958345303073,0.0065067314002264
35.4783108302212,0.0065485080864212
35.50703820741166,0.006613755283385
35.535765584602125,0.0069805978866943
35.56449296179259,0.0066902288517127
35.593220338983045,0.0065614489511291
35.62194771617351,0.0072113754997666
35.65067509336397,0.0067134263993051
35.679402470554436,0.0066331059741152
35.7081298477449,0.0066071581810863
35.73685722493536,0.0064250453094481
35.76558460212582,0.0064634259380035
35.794311979316284,0.0071886937922375
35.82303935650675,0.0056442677971831
35.85176673369721,0.0044552653053129
35.880494110887675,0.0069195122532138
35.90922148807814,0.006569683415173
35.937948865268595,0.0061415967336845
35.96667624245906,0.0064560957590694
35.99540361964952,0.0064975961188283
36.024130996839986,0.0062621704942943
36.05285837403045,0.0065035409769682
36.08158575122091,0.0066840178264365
36.11031312841137,0.006495936546155
36.139040505601834,0.0063671939565936
36.1677678827923,0.0070286008834155
36.19649525998276,0.0061683862174076
36.225222637173225,0.0045593319681903
36.25395001436369,0.0066913193888451
36.282677391554145,0.0063573994300024
36.31140476874461,0.0059561655384494
36.34013214593507,0.0064625367217421
36.368859523125536,0.0065753342425782
36.397586900316,0.0062977779385156
36.426314277506464,0.0064248116852169
36.45504165469692,0.006428963296159
36.483769031887384,0.0063895250271232
36.51249640907785,0.006361434703931
36.54122378626831,0.0064401700540561
36.569951163458775,0.006218946143825
36.59867854064924,0.0058374887697741
36.627405917839695,0.0067863009103966
36.65613329503016,0.0063280463170428
36.68486067222062,0.0062825975717633
36.713588049411086,0.0063088048947658
36.74231542660155,0.006481177158261
36.771042803792014,0.0065429404172145
36.79977018098247,0.0064447244042614
36.828497558172934,0.0065970843397101
36.8572249353634,0.0065452689877832
36.88595231255386,0.0066329948690137
36.914679689744325,0.0063707929785371
36.94340706693479,0.0061209056322816
36.972134444125246,0.0061894084199995
37.00086182131571,0.0063544836641704
37.02958919850617,0.006307448304305
37.05831657569664,0.0064265264027914
37.0870439528871,0.006315621701892
37.11577133007757,0.0063617729366239
37.14449870726802,0.0064696801968108
37.17322608445848,0.006294481204384
37.20195346164895,0.0067598060565879
37.23068083883941,0.0065171534580363
37.259408216029875,0.0064924161274224
37.28813559322034,0.0067868865532089
37.3168629704108,0.0068420846407932
37.34559034760126,0.0069496818735752
37.37431772479172,0.0070043165424732
37.40304510198219,0.0071103561763755
37.43177247917265,0.0080722287663255
37.460499856363114,0.0097660256569078
37.48922723355357,0.0122152900793734
37.517954610744034,0.0138718419992209
37.5466819879345,0.0160243706097286
37.57540936512496,0.0181327199487046
37.604136742315426,0.0193018294507097
37.63286411950589,0.0190970781308322
37.661591496696346,0.0199559442801477
37.69031887388681,0.0195839005533454
37.71904625107727,0.0174411125143958
37.74777362826774,0.0160070918409153
37.7765010054582,0.0172351572548597
37.805228382648664,0.0119627596471915
37.83395575983912,0.0103463472779408
37.862683137029585,0.0141697833206274
37.89141051422005,0.0122221066059992
37.92013789141051,0.0088396996798539
37.948865268600976,0.0091203475164491
37.97759264579144,0.0088452483211685
38.006320022981896,0.0090248194216153
38.03504740017236,0.0086327542969762
38.06377477736282,0.0076307776915092
38.09250215455329,0.0069279855330179
38.12122953174375,0.0070431611259736
38.149956908934215,0.0075033055004907
38.17868428612467,0.0057990042681357
38.207411663315135,0.0062972514394362
38.2361390405056,0.0063026970874241
38.26486641769606,0.0065660897472856
38.293593794886526,0.0064414902204333
38.32232117207699,0.0064312978755696
38.351048549267446,0.0064294760995946
38.37977592645791,0.0062075710153864
38.408503303648374,0.0062222317783654
38.43723068083884,0.0061824571426875
38.4659580580293,0.0060094634388784
38.494685435219765,0.0057135816075558
38.52341281241022,0.0053994933659877
38.552140189600685,0.0063442977515907
38.58086756679115,0.0057086440264382
38.60959494398161,0.0057455339940533
38.63832232117208,0.0058339114558127
38.66704969836254,0.0059153308142006
38.69577707555299,0.0059608138097444
38.72450445274346,0.0060749133037453
38.75323182993392,0.0063933915494167
38.78195920712439,0.0064045878077651
38.81068658431485,0.0065151730875067
38.839413961505315,0.0065074561841012
38.86814133869577,0.0064054781740104
38.896868715886235,0.0063843837181717
38.9255960930767,0.0064592388711844
38.95432347026716,0.0063757781021083
38.983050847457626,0.0060042452529517
39.01177822464809,0.0061480064489424
39.04050560183855,0.0060292972377879
39.06923297902901,0.0061352424595938
39.097960356219474,0.00647792659624
39.12668773340994,0.0064420613485216
39.1554151106004,0.0064029160555921
39.184142487790865,0.0065915920090671
39.21286986498132,0.0064909878159771
39.241597242171785,0.0072443067312803
39.27032461936225,0.0070252329161606
39.29905199655271,0.0068893517342451
39.32777937374318,0.0070014308000776
39.35650675093364,0.0071273382709342
39.3852341281241,0.0070813450719388
39.41396150531456,0.0070028053416968
39.442688882505024,0.0067477381571763
39.47141625969549,0.0067767118459867
39.50014363688595,0.0071891263899113
39.528871014076415,0.0059968280585078
39.55759839126687,0.0060308314565593
39.586325768457336,0.0062624002651895
39.6150531456478,0.0061085829771733
39.64378052283826,0.0060474292763798
39.67250790002873,0.0061871575814847
39.70123527721919,0.0062337417568618
39.72996265440965,0.0061335384840842
39.75869003160011,0.0062002591787063
39.787417408790574,0.0062569886068397
39.81614478598104,0.0064885762489804
39.8448721631715,0.0063756583702289
39.873599540361965,0.0059433157184426
39.90232691755242,0.0062946644603138
39.931054294742886,0.0061564395637325
39.95978167193335,0.0056105485558615
39.98850904912381,0.006031686380921
40.01723642631428,0.0064803788953823
40.04596380350474,0.0055631505481542
40.0746911806952,0.0059758673119211
40.10341855788566,0.0061249976352047
40.132145935076124,0.0060747498849161
40.16087331226659,0.0064632092319714
40.18960068945705,0.0067860326087353
40.21832806664752,0.0065573068024824
40.24705544383797,0.0065613100081195
40.27578282102843,0.0067584684571078
40.3045101982189,0.0066323209503745
40.33323757540936,0.006440000086549
40.36196495259983,0.006833702237057
40.39069232979029,0.007159890528297
40.41941970698075,0.0058551822426896
40.44814708417121,0.0058082736520556
40.476874461361675,0.006169378722282
40.50560183855214,0.0057841413294677
40.5343292157426,0.0058270894822382
40.563056592933066,0.0057736668076209
40.59178397012352,0.0055678091057792
40.620511347313986,0.0056360377250807
40.64923872450445,0.0057244553944869
40.67796610169491,0.0055964138793865
40.70669347888538,0.0053557081919753
40.73542085607584,0.0058628489015411
40.7641482332663,0.0061317007417651
40.79287561045676,0.0057780787339491
40.821602987647225,0.0057115955995408
40.85033036483769,0.0063223368093526
40.87905774202815,0.0063059360072572
40.907785119218616,0.0064351659206224
40.93651249640907,0.006686337442197
40.965239873599536,0.0063455657284794
40.99396725079,0.0062432397294294
41.022694627980464,0.0065053303084488
41.05142200517093,0.0063780010477437
41.08014938236139,0.0059249607360337
41.10887675955185,0.0062504486743667
41.13760413674231,0.0062906667267209
41.166331513932775,0.0060553350302209
41.19505889112324,0.006332915155216
41.2237862683137,0.0067077698868614
41.25251364550416,0.0066539514541786
41.28124102269462,0.0065312368965076
41.309968399885086,0.0064458207490246
41.33869577707555,0.0065630327917194
41.367423154266014,0.0063564288302635
41.39615053145648,0.0062468799436884
41.424877908646934,0.006332137465818
41.4536052858374,0.0061767170960232
41.48233266302786,0.0058000350814833
41.511060040218325,0.0056340008488142
41.53978741740879,0.006679415074578
41.56851479459925,0.0067388937840799
41.59724217178971,0.0078715612397272
41.62596954898017,0.0101699809795289
41.65469692617064,0.0119939715515997
41.6834243033611,0.0133311648469262
41.71215168055157,0.0159849480054463
41.74087905774203,0.017259322685954
41.76960643493248,0.0181735710739947
41.79833381212295,0.0190140101888834
41.82706118931341,0.0194507150454359
41.855788566503875,0.019038664690971
41.88451594369434,0.0180594547135137
41.9132433208848,0.0164199208222594
41.94197069807526,0.012214726906743
41.97069807526572,0.0108346241678146
41.99942545245619,0.0107522970839734
42.02815282964665,0.0083358304064969
42.056880206837114,0.007692922502364
42.08560758402758,0.0079714280259358
42.114334961218034,0.0078888170288581
42.1430623384085,0.0076480153418137
42.17178971559896,0.0082548751135783
42.200517092789426,0.0076971962664755
42.22924446997989,0.007352385571629
42.25797184717035,0.0074635736042229
42.28669922436081,0.007652525559858
42.31542660155127,0.0076852580562988
42.34415397874174,0.0068171699504643
42.3728813559322,0.0070971106675882
42.401608733122664,0.0075614391102704
42.43033611031313,0.0073199148737803
42.459063487503585,0.0071521360051297
42.48779086469405,0.0070452490872323
42.51651824188451,0.0068116384419075
42.545245619074976,0.0070203984895097
42.57397299626544,0.0068063345266113
42.6027003734559,0.0064412966076734
42.63142775064636,0.006172945977671
42.66015512783682,0.0062965833811426
42.68888250502729,0.006357045418104
42.71760988221775,0.0063216169158579
42.746337259408214,0.0064964718877789
42.77506463659868,0.0064873033648006
42.803792013789135,0.0063714101703894
42.8325193909796,0.0065271188146638
42.86124676817006,0.0063750951870676
42.889974145360526,0.0066582438727792
42.91870152255099,0.0065532556777211
42.94742889974145,0.0066260324704141
42.97615627693191,0.006575806000115
43.004883654122374,0.0063024269714384
43.03361103131284,0.0063223299849276
43.0623384085033,0.0063555534175745
43.091065785693765,0.0066130187628312
43.11979316288423,0.0069341904690016
43.148520540074685,0.0070889814799911
43.17724791726515,0.0070510490228303
43.20597529445561,0.0069379640910108
43.23470267164608,0.0068468280007331
43.26343004883654,0.0070195029799018
43.292157426027,0.0077131903432041
43.32088480321746,0.0061873415441803
43.34961218040792,0.0065733917177848
43.37833955759839,0.0063276143348653
43.40706693478885,0.0060744119638915
43.435794311979315,0.0062925988543009
43.46452168916978,0.0065016657956699
43.493249066360235,0.0064371125356143
43.5219764435507,0.0061564522872769
43.55070382074116,0.0060769769585025
43.579431197931626,0.0065253050031159
43.60815857512209,0.0064719908077292
43.636885952312554,0.0067434253038289
43.66561332950301,0.0063729672071219
43.694340706693474,0.0062907214108474
43.72306808388394,0.0065242070506324
43.7517954610744,0.0065842523448078
43.780522838264865,0.0061887709972616
43.80925021545533,0.0063563282254871
43.837977592645785,0.006897708358042
43.86670496983625,0.0066160142239008
43.89543234702671,0.0066997684761582
43.924159724217176,0.0069242550556823
43.95288710140764,0.0069011259318728
43.981614478598104,0.0070492662906515
44.01034185578856,0.0073022717595338
44.039069232979024,0.0069948463266787
44.06779661016949,0.006790323205083
44.09652398735995,0.0068721655089082
44.125251364550415,0.0071878573807038
44.15397874174088,0.0071262052520373
44.182706118931335,0.0077222597484111
44.2114334961218,0.0076207163850059
44.24016087331226,0.0072898099953653
44.26888825050273,0.0069851986124648
44.29761562769319,0.0068351094207307
44.326343004883654,0.0069315161910094
44.35507038207411,0.0066381567711992
44.383797759264574,0.00623193514758
44.41252513645504,0.0060692405442095
44.4412525136455,0.0059715054395679
44.469979890835965,0.0064253938958644
44.49870726802643,0.0066216155725862
44.527434645216886,0.0067724941558597
44.55616202240735,0.0071733742982734
44.58488939959781,0.0073059144523711
44.61361677678828,0.0071405043296124
44.64234415397874,0.0077444117506956
44.6710715311692,0.0073936687154503
44.69979890835966,0.0070113972905821
44.72852628555013,0.0070409598172226
44.75725366274059,0.0069850608935372
44.78598103993105,0.0070331307278056
44.81470841712152,0.0070965572284756
44.84343579431198,0.0070314363071348
44.87216317150243,0.0072787807136279
44.9008905486929,0.0074470110575295
44.92961792588336,0.008262457515132
44.95834530307383,0.0071356406888605
44.98707268026429,0.0072944576043905
45.015800057454754,0.0080746547676321
45.04452743464521,0.0080561070917031
45.073254811835675,0.0075538490079979
45.10198218902614,0.007237698057629
45.1307095662166,0.0073815339585111
45.159436943407066,0.0071987745419391
45.18816432059753,0.0083125372138144
45.216891697787986,0.0082254207186459
45.24561907497845,0.0079971598689883
45.27434645216891,0.0080978493815324
45.30307382935938,0.0080303857723123
45.33180120654984,0.0085889342469107
45.360528583740304,0.0085126688784236
45.38925596093076,0.0084240818832576
45.417983338121225,0.0077960288661624
45.44671071531169,0.0061930759837153
45.47543809250215,0.0100899948415652
45.504165469692616,0.0098808332474275
45.53289284688308,0.0164923187681025
45.561620224073536,0.0123288649147531
45.590347601264,0.0124288005096485
45.619074978454464,0.0172767242828294
45.64780235564493,0.0158870655357877
45.67652973283539,0.0163353916451804
45.705257110025855,0.0145593544272879
45.73398448721631,0.0135715516459301
45.762711864406775,0.0131035954977652
45.79143924159724,0.0108080179530134
45.8201666187877,0.0109307353608327
45.848893995978166,0.0111495477763978
45.87762137316863,0.0114967403583397
45.906348750359086,0.0117217070738049
45.93507612754955,0.0112628933130625
45.963803504740014,0.0111136725773947
45.99253088193048,0.0112201733337182
46.02125825912094,0.0110103034016464
46.049985636311405,0.0098349349158926
46.07871301350186,0.0088963737919222
46.107440390692325,0.008788463715956
46.13616776788279,0.0089944648320065
46.16489514507325,0.00816973116413
46.19362252226371,0.0081813738246861
46.22234989945418,0.0090051023236063
46.25107727664464,0.0085597420056796
46.2798046538351,0.0080676306171443
46.30853203102557,0.0083770336919119
46.33725940821603,0.0078079606299378
46.36598678540649,0.0066640421734207
46.394714162596955,0.0073545597305889
46.42344153978741,0.007131654735392
46.452168916977875,0.0062532860086086
46.48089629416834,0.0066912262453261
46.5096236713588,0.0074686772440153
46.538351048549266,0.0065097883391179
46.56707842573973,0.0071659935209187
46.59580580293019,0.0073254862578125
46.62453318012065,0.0071365897816978
46.653260557311114,0.0069798596483991
46.68198793450158,0.007333658171969
46.71071531169204,0.0071694312282256
46.739442688882505,0.0065592369612352
46.76817006607296,0.0059918353590421
46.796897443263425,0.0058536450029095
46.82562482045389,0.0062034883816405
46.85435219764435,0.0063360570950227
46.88307957483482,0.0059354011336217
46.91180695202528,0.0065347767752596
46.94053432921574,0.0065643851574636
46.9692617064062,0.006484562165688
46.997989083596664,0.0070096952927818
47.02671646078713,0.0074978291554354
47.05544383797759,0.0071008138714156
47.08417121516805,0.0069823658477018
47.11289859235851,0.0071575756631583
47.141625969548976,0.0088013104455222
47.17035334673944,0.0077672106015839
47.1990807239299,0.0079443820521109
47.22780810112037,0.0078310581452952
47.25653547831082,0.0072969285227709
47.28526285550129,0.0075323203841655
47.31399023269175,0.0073971426889954
47.342717609882214,0.0062810670414909
47.37144498707268,0.0064781745564953
47.40017236426314,0.0066787945057445
47.4288997414536,0.0067213687211303
47.45762711864406,0.0067363091465695
47.486354495834526,0.0067640997282247
47.51508187302499,0.0067435113480792
47.54380925021545,0.0068854779923077
47.57253662740592,0.0066958111037029
47.60126400459637,0.0066166255210509
47.62999138178684,0.0066830129922495
47.6587187589773,0.0065773696688092
47.687446136167765,0.0063693719235467
47.71617351335823,0.0064276612428746
47.74490089054869,0.0069048219893909
47.77362826773915,0.0066385400783652
47.80235564492961,0.0063719685378413
47.83108302212008,0.0069516913943126
47.85981039931054,0.0067322883210483
47.888537776501,0.0067608069233716
47.91726515369147,0.0071479768750635
47.94599253088192,0.0072480418084814
47.97471990807239,0.0069530925665888
48.00344728526285,0.0070675003068503
48.032174662453315,0.0070500425129277
48.06090203964378,0.0068356900780164
48.08962941683424,0.0069151710188774
48.1183567940247,0.0068543907219696
48.14708417121516,0.006716765511452
48.175811548405626,0.0071879117611206
48.20453892559609,0.0076135784525242
48.233266302786554,0.0074048867417102
48.26199367997702,0.0081059320490454
48.290721057167474,0.0083113567062798
48.31944843435794,0.008348352607521
48.3481758115484,0.007512807450237
48.376903188738865,0.007464367103534
48.40563056592933,0.0072577866496794
48.43435794311979,0.007231550584665
48.46308532031025,0.0071636325961677
48.49181269750071,0.0067022446084403
48.520540074691176,0.0066376270704184
48.54926745188164,0.0065799350336721
48.577994829072104,0.0066564212804928
48.60672220626257,0.0067823510522666
48.635449583453024,0.0068553711320725
48.66417696064349,0.0068498361128164
48.69290433783395,0.006802971818554
48.721631715024415,0.0068014143952915
48.75035909221488,0.0068485946994938
48.77908646940534,0.0070627499803744
48.8078138465958,0.0073478838453247
48.83654122378626,0.0064389886749941
48.86526860097673,0.0070466424797925
48.89399597816719,0.0073157579174652
48.922723355357654,0.0069322052946476
48.95145073254812,0.0068168488902547
48.980178109738574,0.0070332275308471
49.00890548692904,0.0070240311778801
49.0376328641195,0.0066674266165406
49.066360241309965,0.0069716611416282
49.09508761850043,0.0067452012361675
49.12381499569089,0.0063147050837616
49.15254237288135,0.0066135255521724
49.18126975007181,0.0068828886472558
49.20999712726228,0.0065727540443468
49.23872450445274,0.006361869259616
49.2674518816432,0.0069803844412952
49.29617925883367,0.0066566256456066
49.32490663602413,0.0065544980422621
49.35363401321459,0.006498500273625
49.38236139040505,0.0060897855560543
49.411088767595515,0.0069828910974861
49.43981614478598,0.0065360204394085
49.46854352197644,0.006456105199262
49.4972708991669,0.0068130221244032
49.52599827635736,0.0068571508279573
49.55472565354783,0.0069369820634392
49.58345303073829,0.0076837327611062
49.612180407928754,0.009481429562189
49.64090778511922,0.0164021055703609
49.669635162309675,0.0173718321601354
49.69836253950014,0.0174893932251121
49.7270899166906,0.0182782634159247
49.755817293881066,0.0186077207030617
49.78454467107153,0.0184819711407268
49.81327204826199,0.0176200775826766
49.84199942545245,0.0158242270113732
49.87072680264291,0.0144067491985679
49.89945417983338,0.0133450000139744
49.92818155702384,0.0109206061413931
49.956908934214304,0.0111418512502755
49.98563631140477,0.0118900504392121
50.014363688595225,0.0101549297240397
50.04309106578569,0.0085798189772311
50.07181844297615,0.0086138344683564
50.100545820166616,0.0085543870516573
50.12927319735708,0.0096336828892178
50.15800057454754,0.0072290851732754
50.186727951738,0.0066123891795426
50.21545532892846,0.007592769539165
50.24418270611893,0.0072470684873193
50.27291008330939,0.0066592856227339
50.301637460499855,0.0070142327039553
50.33036483769032,0.0076706235628226
50.359092214880775,0.0053400533658409
50.38781959207124,0.0066751369324736
50.4165469692617,0.0073090559854633
50.445274346452166,0.0070622161342529
50.47400172364263,0.0071483366432074
50.50272910083309,0.0081873616582726
50.53145647802355,0.0070160257076704
50.560183855214014,0.0073869501850884
50.58891123240448,0.0077694118302928
50.61763860959494,0.0073633622114662
50.646365986785405,0.0069929846819645
50.67509336397587,0.0081786541085612
50.703820741166325,0.0078756858403292
50.73254811835679,0.0077046265503445
50.76127549554725,0.0083338596816176
50.79000287273771,0.0085621451936056
50.81873024992818,0.0081819794016453
50.84745762711864,0.0083565177213193
50.8761850043091,0.0078096662345417
50.90491238149957,0.007558525196541
50.93363975869003,0.0077756266653429
50.96236713588049,0.0079311077546331
50.991094513070955,0.0069566857624175
51.01982189026142,0.0069669050536444
51.048549267451875,0.0078037174565636
51.07727664464234,0.0078974068977162
51.1060040218328,0.0077651396255012
51.134731399023266,0.0080593156244517
51.16345877621373,0.0077092285944406
51.192186153404194,0.0089426430383006
51.22091353059465,0.0097371308298636
51.249640907785114,0.0087848947768811
51.27836828497558,0.0097978464817735
51.30709566216604,0.0101834455175826
51.335823039356505,0.0100758171194115
51.36455041654697,0.009995347817993
51.393277793737425,0.0093376976132868
51.42200517092789,0.0087423626861367
51.45073254811835,0.0086384304199775
51.47945992530882,0.0081536525707745
51.50818730249928,0.0074105345485795
51.536914679689744,0.0070953714781291
51.5656420568802,0.0074957132823542
51.594369434070664,0.0077764273380307
51.62309681126113,0.0071170305358282
51.65182418845159,0.0072774810093991
51.680551565642055,0.0073023278812822
51.70927894283252,0.0073063837562872
51.738006320022976,0.0072923665727406
51.76673369721344,0.0075260906042223
51.7954610744039,0.0072554529167936
51.82418845159437,0.0071686969239158
51.85291582878483,0.0075457786681403
51.881643205975294,0.0070473878737039
51.91037058316575,0.0069412285750703
51.939097960356214,0.0074187856955741
51.96782533754668,0.0072529003295532
51.99655271473714,0.0072522004927675
52.025280091927605,0.0072284206289291
52.05400746911807,0.0070478315794234
52.082734846308526,0.007006856522254
52.11146222349899,0.007255074852615
52.14018960068945,0.0062040236699845
52.16891697787992,0.0075675722952843
52.19764435507038,0.0070919610192136
52.22637173226085,0.0063693171345497
52.2550991094513,0.0063647068361064
52.283826486641765,0.0067948617236554
52.31255386383223,0.0059275595591882
52.34128124102269,0.0062547410384374
52.37000861821315,0.0063448672286876
52.39873599540362,0.006058638004897
52.42746337259408,0.0058207592617355
52.45619074978454,0.0065930920578466
52.484918126975,0.0061643157393446
52.51364550416547,0.0058907421299671
52.54237288135593,0.006436347419751
52.571100258546394,0.0064213666826064
52.59982763573685,0.0063493751183653
52.628555012927315,0.006413514344499
52.65728239011778,0.0063209199919634
52.68600976730824,0.0061303051251259
52.714737144498706,0.0060390671870795
52.74346452168917,0.0068186456680665
52.772191898879626,0.0068248132359088
52.80091927607009,0.0065442977003734
52.82964665326055,0.0068213526040196
52.85837403045102,0.0063906573093522
52.88710140764148,0.0060876225961716
52.915828784831945,0.0064963405423971
52.9445561620224,0.0064113414648476
52.973283539212865,0.0060474039630038
53.00201091640333,0.0055835452889115
53.03073829359379,0.0057695579011583
53.059465670784256,0.0060311593376224
53.08819304797471,0.0059870185577861
53.116920425165176,0.0058931102257381
53.14564780235564,0.0061686450611827
53.174375179546104,0.0060502127521606
53.20310255673657,0.0062820375675069
53.23182993392703,0.0066066768093877
53.26055731111749,0.0065974776763441
53.28928468830795,0.0065652564378303
53.318012065498415,0.0070008751048662
53.34673944268888,0.0068325866076347
53.37546681987934,0.0062635763819248
53.404194197069806,0.0064458757317923
53.43292157426026,0.0064440349446711
53.46164895145073,0.0066928696074579
53.49037632864119,0.0070219199578609
53.519103705831654,0.0048932337768734
53.54783108302212,0.0094237737357724
53.57655846021258,0.0097861476606466
53.60528583740304,0.0130790932070786
53.6340132145935,0.0145742464168898
53.662740591783965,0.0151513730407845
53.69146796897443,0.0161947108899508
53.72019534616489,0.0175729738216259
53.74892272335536,0.0179508907603215
53.77765010054581,0.0178263626906025
53.80637747773628,0.0176739135297136
53.83510485492674,0.0146907739621413
53.8638322321172,0.013727444084608
53.89255960930767,0.0125822523465949
53.92128698649813,0.0115066442227772
53.95001436368859,0.0112714692563416
53.97874174087905,0.0099810105439491
54.007469118069515,0.0087068429639746
54.03619649525998,0.0082284472901267
54.06492387245044,0.0087343665475864
54.09365124964091,0.0090494667589675
54.12237862683136,0.0083793717157657
54.15110600402183,0.0075151495314303
54.17983338121229,0.0076646621677673
54.208560758402754,0.0074098704470857
54.23728813559322,0.0071280125305796
54.26601551278368,0.0071381976846226
54.29474288997414,0.0067974935074738
54.3234702671646,0.0066392559984838
54.352197644355066,0.0065214325131022
54.38092502154553,0.0063728950402947
54.40965239873599,0.0061400992474138
54.43837977592646,0.0063186637147182
54.46710715311691,0.006630323957894
54.49583453030738,0.0060430263406109
54.52456190749784,0.0062265850755645
54.553289284688304,0.0068518072242636
54.58201666187877,0.006649844509565
54.61074403906923,0.0067470054222413
54.63947141625969,0.0066681626172868
54.66819879345015,0.0064714889575524
54.696926170640616,0.0065077714271162
54.72565354783108,0.0070327467330979
54.75438092502154,0.0070871372007414
54.78310830221201,0.0050016213767457
54.81183567940246,0.0078349242471834
54.84056305659293,0.0069874349742509
54.86929043378339,0.0062568917745842
54.898017810973855,0.0069672484757576
54.92674518816432,0.0073988085008603
54.95547256535478,0.0060994709802868
54.98419994254524,0.0065897658313015
55.0129273197357,0.0069794653569911
55.041654696926166,0.006724273305538
55.07038207411663,0.0064309822206194
55.09910945130709,0.0069317259725368
55.12783682849756,0.0070075777139181
55.156564205688014,0.0057058154032403
55.18529158287848,0.0065562671997183
55.21401896006894,0.0066560998227119
55.242746337259405,0.0059584947533041
55.27147371444987,0.0061072474600008
55.30020109164033,0.0068810436462314
55.32892846883079,0.0068483178641751
55.35765584602125,0.0069057807036574
55.38638322321171,0.00698315421232
55.41511060040218,0.0068118046481541
55.44383797759264,0.0066452870884249
55.47256535478311,0.0065345217177841
55.50129273197357,0.0064220869866883
55.53002010916403,0.0062206799350312
55.55874748635449,0.0061035069336612
55.587474863544955,0.0062653106614735
55.61620224073542,0.0066555449813349
55.64492961792588,0.0067895624786038
55.67365699511634,0.0072601203702188
55.7023843723068,0.0070762595762318
55.731111749497266,0.0071513959940338
55.75983912668773,0.007715206865695
55.788566503878194,0.0079977521256813
55.81729388106866,0.0069501353955202
55.846021258259114,0.0089219829245111
55.87474863544958,0.0083039242107425
55.90347601264004,0.0069484595250365
55.932203389830505,0.0075570806771342
55.96093076702097,0.0071372267077407
55.98965814421143,0.0067391472527652
56.01838552140189,0.0067496729639564
56.04711289859235,0.0070831150067916
56.07584027578282,0.0074580791666468
56.10456765297328,0.0073247232198407
56.133295030163744,0.007403834895976
56.16202240735421,0.0079843574136183
56.190749784544664,0.0078495108035982
56.21947716173513,0.0075585137619501
56.24820453892559,0.0078365896625958
56.276931916116055,0.0078746955913074
56.30565929330652,0.0066660041902935
56.33438667049698,0.0073507795942012
56.36311404768744,0.0070097666135858
56.3918414248779,0.0064944667657197
56.42056880206837,0.0065694637480146
56.44929617925883,0.0067850046996369
56.478023556449294,0.0065158281637146
56.50675093363976,0.0062699318379255
56.535478310830214,0.0067393712028394
56.56420568802068,0.0061943792902673
56.59293306521114,0.0070970439687523
56.621660442401605,0.0076085161439026
56.65038781959207,0.0074317769345516
56.67911519678253,0.0072821879537509
56.70784257397299,0.0074018403960749
56.73656995116345,0.0081700461873468
56.76529732835392,0.0069736086565418
56.79402470554438,0.0072462148879866
56.82275208273485,0.0074404577622862
56.85147945992531,0.0069760598568946
56.880206837115765,0.0070493255537096
56.90893421430623,0.0070250435065979
56.93766159149669,0.0070757743828762
56.96638896868715,0.0067821992164223
56.99511634587762,0.0067619674592042
57.02384372306808,0.0063386468861158
57.05257110025854,0.0059003578109055
57.081298477449,0.0058256419597105
57.11002585463947,0.0058548745106592
57.13875323182993,0.0062890070115323
57.167480609020394,0.0061164777078839
57.19620798621086,0.0062473432936147
57.224935363401315,0.0063605454270891
57.25366274059178,0.0061451883022799
57.28239011778224,0.0064218150396391
57.311117494972706,0.006546947722856
57.33984487216317,0.0065981852547814
57.36857224935363,0.0066337197344681
57.39729962654409,0.0071051455054726
57.42602700373455,0.0070681750408
57.45475438092502,0.0071182815738838
57.48348175811548,0.00752219224235
57.512209135305945,0.0077726654979533
57.54093651249641,0.0104450762440878
57.569663889686865,0.0107535950444566
57.59839126687733,0.011632650123733
57.62711864406779,0.0126346682760151
57.655846021258256,0.0148221970123093
57.68457339844872,0.0149941349290949
57.71330077563918,0.0166236724236929
57.74202815282964,0.0170299749704911
57.770755530020104,0.014983528721977
57.79948290721057,0.0146479089226175
57.82821028440103,0.0148178753270585
57.856937661591495,0.0127329794979995
57.88566503878196,0.0145627846679204
57.914392415972415,0.0064667454037732
57.94311979316288,0.0057755874521038
57.97184717035334,0.0086852590219929
58.000574547543806,0.0073963815287332
58.02930192473427,0.006365435117907
58.05802930192473,0.0064828623010622
58.08675667911519,0.0061860891935358
58.115484056305654,0.0061749406208767
58.14421143349612,0.006247097990922
58.17293881068658,0.006251887651171
58.201666187877045,0.006153190225079
58.23039356506751,0.0062365106763739
58.259120942257965,0.0062899267301825
58.28784831944843,0.00605595006748
58.31657569663889,0.0061019067835479
58.34530307382936,0.0063062381648649
58.37403045101982,0.0059900057738902
58.40275782821029,0.0056562654172269
58.43148520540074,0.0059585985602079
58.4602125825912,0.0057281386326489
58.48893995978167,0.0060435370945775
58.51766733697213,0.0064472710771719
58.546394714162595,0.0065128037635246
58.57512209135306,0.0064738487496479
58.603849468543515,0.0066858314847225
58.63257684573398,0.0067777275629927
58.66130422292444,0.006889334322871
58.69003160011491,0.0069183437784668
58.71875897730537,0.006853108651166
58.747486354495834,0.006343929011022
58.77621373168629,0.0061913814359991
58.804941108876754,0.0066896995144822
58.83366848606722,0.0064731118582224
58.86239586325768,0.0056997729777647
58.891123240448145,0.0055479031965181
58.9198506176386,0.0057906329820274
58.948577994829066,0.0055436938775174
58.97730537201953,0.0059258411114308
59.00603274920999,0.0060436520911837
59.03476012640046,0.006159878116395
59.06348750359092,0.0060506436233359
59.09221488078138,0.006184989990287
59.12094225797184,0.0062753528493231
59.149669635162304,0.0061485776082463
59.17839701235277,0.0061735713375956
59.20712438954323,0.0061270067505375
59.235851766733695,0.0057228088600321
59.26457914392415,0.005652343462386
59.293306521114616,0.0058109740473243
59.32203389830508,0.0057087836028355
59.35076127549554,0.0060924966650615
59.37948865268601,0.0064199863504416
59.40821602987647,0.0064816962298735
59.43694340706693,0.0062767239637542
59.46567078425739,0.0064826909531918
59.494398161447855,0.0073501589599579
59.52312553863832,0.0072255189726381
59.55185291582878,0.0074844106479718
59.580580293019246,0.0069606932435522
59.6093076702097,0.0067225515627003
59.638035047400166,0.00692656708885
59.66676242459063,0.0070161476797324
59.69548980178109,0.0069467982084042
59.72421717897156,0.0069580404704249
59.75294455616202,0.0064869001156976
59.78167193335248,0.0067452203028442
59.81039931054294,0.0060785631182624
59.839126687733405,0.0063763590274385
59.86785406492387,0.0067974570094863
59.89658144211433,0.0055433065646756
59.9253088193048,0.0060792852196067
59.95403619649525,0.006222252912774
59.98276357368571,0.0059248855962889
60.01149095087618,0.0064673679579029
60.04021832806664,0.0067789619063072
60.06894570525711,0.0070445237370591
60.09767308244757,0.0070786099016404
60.12640045963803,0.0070600983539088
60.15512783682849,0.0072329341299649
60.183855214018955,0.0074905051425337
60.21258259120942,0.0075322118128059
60.24130996839988,0.0073012066317021
60.270037345590346,0.0072416280766779
60.2987647227808,0.0074058025588735
60.327492099971266,0.0074630067349192
60.35621947716173,0.0070902182541444
60.384946854352194,0.0064320735574719
60.41367423154266,0.0063996952654854
60.44240160873312,0.0064598667430816
60.47112898592358,0.0063433217266072
60.49985636311404,0.0063949198466928
60.528583740304505,0.0064309726673029
60.55731111749497,0.0064771467374018
60.58603849468543,0.0061321887124583
60.614765871875896,0.0057673868164167
60.64349324906635,0.0060211226063676
60.672220626256816,0.0059905032648417
60.70094800344728,0.0058019997795157
60.729675380637744,0.005676255257513
60.75840275782821,0.0054850355974779
60.78713013501867,0.0053989724929136
60.81585751220913,0.0056014656468268
60.84458488939959,0.0058163039360923
60.873312266590055,0.0056995898040798
60.90203964378052,0.0057413233673029
60.93076702097098,0.005780862364314
60.959494398161446,0.0057455357666071
60.9882217753519,0.0056891880970763
61.01694915254237,0.0058002672907746
61.04567652973283,0.0057450371902542
61.074403906923294,0.0057325989228948
61.10313128411376,0.0058991789551168
61.13185866130422,0.0061316872404115
61.16058603849468,0.0061795043650415
61.18931341568514,0.0059938926835798
61.218040792875605,0.0061552171817726
61.24676817006607,0.0058203092163356
61.27549554725653,0.0059186140902972
61.304222924447,0.0057640661587831
61.33295030163745,0.0059448835040103
61.36167767882792,0.0054660720479186
61.39040505601838,0.0054727421358144
61.41913243320885,0.0056078299488152
61.44785981039931,0.0055466901412472
61.47658718758977,0.0057179146161985
61.50531456478023,0.0055508180748161
61.53404194197069,0.00549190609322
61.56276931916115,0.0054447284919629
61.59149669635162,0.0056527576734175
61.62022407354208,0.0057509816897649
61.64895145073255,0.0056093026238379
61.677678827923,0.0057122477446687
61.70640620511347,0.0062843140998948
61.73513358230393,0.0059621064111116
61.763860959494394,0.0058995882910443
61.79258833668486,0.0069825036585741
61.82131571387532,0.0065711909573011
61.85004309106578,0.0064334399220586
61.87877046825624,0.007111086943039
61.907497845446706,0.006886766582393
61.93622522263717,0.0097531229130069
61.96495259982763,0.0086107725046519
61.9936799770181,0.0048480372108742
62.02240735420855,0.0214959886909087
62.05113473139902,0.0151477380431666
62.07986210858948,0.0151908268276643
62.108589485779945,0.0159584748945285
62.13731686297041,0.0159018365229141
62.16604424016087,0.0164517047757633
62.19477161735133,0.0139893808020902
62.22349899454179,0.0115199252310309
62.252226371732256,0.0098672465778987
62.28095374892272,0.0080228199183274
62.30968112611318,0.0072114378675936
62.33840850330365,0.0073698989426151
62.367135880494104,0.0073292004796393
62.39586325768457,0.0070618700827288
62.42459063487503,0.0069310990970627
62.453318012065495,0.0067872663248713
62.48204538925596,0.0066303435519598
62.51077276644642,0.006515551987191
62.53950014363688,0.0064700463097548
62.56822752082734,0.0063112164357094
62.596954898017806,0.0061989729161478
62.62568227520827,0.006300117025587
62.65440965239873,0.0063757399681047
62.6831370295892,0.0065685130411863
62.711864406779654,0.0065783983108554
62.74059178397012,0.0063583732493143
62.76931916116058,0.0065255161724917
62.798046538351045,0.0063406839836002
62.82677391554151,0.0064175630772321
62.85550129273197,0.0066080600871572
62.88422866992243,0.007165942756969
62.91295604711289,0.0068756926095853
62.94168342430336,0.0056665537014471
62.97041080149382,0.0061733698130976
62.99913817868429,0.0062571941206795
63.02786555587475,0.0057578248346881
63.0565929330652,0.0059456229562908
63.08532031025567,0.005695390406748
63.11404768744613,0.0056223832589596
63.142775064636595,0.0058339236033927
63.17150244182706,0.0061933863218709
63.20022981901752,0.0057595269137693
63.22895719620798,0.0057504303820449
63.25768457339844,0.0058501281661762
63.28641195058891,0.0055967988952114
63.31513932777937,0.0053836043887757
63.343866704969834,0.0060641418124395
63.3725940821603,0.0058386425185224
63.401321459350754,0.005776000516652
63.43004883654122,0.0058662301230761
63.45877621373168,0.0058409318501631
63.487503590922145,0.0058502550829201
63.51623096811261,0.0061634107442361
63.54495834530307,0.0063199779227998
63.57368572249353,0.0062796077871868
63.60241309968399,0.0064599678009857
63.63114047687446,0.0058520151468274
63.65986785406492,0.0061701582858677
63.688595231255384,0.0067543619954906
63.71732260844585,0.0058425070661117
63.746049985636304,0.0057779485288897
63.77477736282677,0.0052481873724814
63.80350474001723,0.005949265886776
63.832232117207695,0.0061229436222903
63.86095949439816,0.0059995969583305
63.88968687158862,0.0058048160079933
63.91841424877908,0.0058036046865479
63.94714162596954,0.0059815191465566
63.97586900316001,0.0060740002710637
64.00459638035046,0.0058836528450635
64.03332375754093,0.0056292059330709
64.06205113473139,0.0054697828399002
64.09077851192185,0.0054164192347681
64.11950588911232,0.0054549100567846
64.14823326630278,0.0055020548965209
64.17696064349325,0.0054871707104926
64.20568802068371,0.0054512194598402
64.23441539787417,0.0052706568534817
64.26314277506464,0.0051934156194232
64.2918701522551,0.005725495932785
64.32059752944556,0.0056148594089401
64.34932490663601,0.0056920164107896
64.37805228382648,0.0059120710878297
64.40677966101694,0.0058430261543318
64.4355070382074,0.0062700236823593
64.46423441539787,0.0059761850649908
64.49296179258833,0.0058711522409656
64.5216891697788,0.0058484825239945
64.55041654696926,0.0059479525480919
64.57914392415972,0.0057400390775929
64.60787130135019,0.0056055028619322
64.63659867854065,0.0057692457618319
64.66532605573111,0.0059191413098693
64.69405343292156,0.0058354909204268
64.72278081011203,0.0058748281874787
64.75150818730249,0.0060213609327914
64.78023556449295,0.0057212535374986
64.80896294168342,0.0057290171520764
64.83769031887388,0.0060127710819639
64.86641769606435,0.0057581381396718
64.89514507325481,0.0058603094897702
64.92387245044527,0.0060501721887709
64.95259982763574,0.0058266286933797
64.9813272048262,0.0058584125246709
65.01005458201665,0.0059265735942164
65.03878195920711,0.0065973859297789
65.06750933639758,0.0050897328900016
65.09623671358804,0.0056587351786882
65.1249640907785,0.0053414235237369
65.15369146796897,0.005432996847899
65.18241884515943,0.0056708098718115
65.2111462223499,0.005697026609368
65.23987359954036,0.0058238009477122
65.26860097673082,0.0060409902459098
65.29732835392129,0.0059461431402374
65.32605573111175,0.0060131964379097
65.3547831083022,0.0064524915246242
65.38351048549266,0.0059499824517296
65.41223786268313,0.0058100387091512
65.44096523987359,0.0059110050209657
65.46969261706406,0.0057992255141421
65.49841999425452,0.0059157710407414
65.52714737144498,0.0058850384859449
65.55587474863545,0.0058145664644289
65.58460212582591,0.0057518462972335
65.61332950301637,0.0057466312517351
65.64205688020684,0.0058851725566408
65.6707842573973,0.0059234851899202
65.69951163458775,0.0056909649654721
65.72823901177821,0.0060381213580189
65.75696638896868,0.006192015445979
65.78569376615914,0.006233476403822
65.8144211433496,0.0064737753839626
65.84314852054007,0.0064344036107585
65.87187589773053,0.0065775484492232
65.900603274921,0.0057066654467639
65.92933065211146,0.0075662432282141
65.95805802930192,0.001536408146814
65.98678540649239,0.008700476782165184
66.01551278368285,0.0131011103612841
66.0442401608733,0.0098754297830573
66.07296753806376,0.0144170037268577
66.10169491525423,0.0158824904148619
66.13042229244469,0.0160035883197903
66.15914966963516,0.0156104116309875
66.18787704682562,0.0137894392088872
66.21660442401608,0.0125770254033919
66.24533180120655,0.0127373452846374
66.27405917839701,0.0108569637733267
66.30278655558747,0.0099848813649802
66.33151393277794,0.0093788655178873
66.3602413099684,0.008574777355423
66.38896868715885,0.0081559193503211
66.41769606434931,0.0073992889340618
66.44642344153978,0.0074877965277197
66.47515081873024,0.0081607083164847
66.5038781959207,0.0071130024859608
66.53260557311117,0.0070958963581967
66.56133295030163,0.0071010524867121
66.5900603274921,0.0069657711966771
66.61878770468256,0.0069512554496545
66.64751508187302,0.0069685923814936
66.67624245906349,0.0068430231208059
66.70496983625395,0.006652065621103
66.7336972134444,0.0064613770399927
66.76242459063486,0.0064460159669263
66.79115196782533,0.0065269017095008
66.81987934501579,0.0063633400511551
66.84860672220626,0.0062641725918055
66.87733409939672,0.0062102309303278
66.90606147658718,0.0060371130084609
66.93478885377765,0.0061513207854212
66.96351623096811,0.0063360704710981
66.99224360815857,0.0062533149370903
67.02097098534904,0.006060093724339
67.0496983625395,0.0062141899967389
67.07842573972995,0.0063285542635113
67.10715311692041,0.0060006114737844
67.13588049411088,0.0061847045007493
67.16460787130134,0.0061305228507154
67.1933352484918,0.0057727035283247
67.22206262568227,0.0059627997560615
67.25079000287273,0.0062310114176215
67.2795173800632,0.0061240904002612
67.30824475725366,0.0060925699633894
67.33697213444412,0.0060658689817842
67.36569951163459,0.0060491959515291
67.39442688882505,0.0060376464418984
67.4231542660155,0.0061562322788587
67.45188164320597,0.005867837804221
67.48060902039643,0.0058743622118399
67.50933639758689,0.0062402554157106
67.53806377477736,0.006196298511621
67.56679115196782,0.0063840497974041
67.59551852915828,0.0064646517564975
67.62424590634875,0.0063197348699368
67.65297328353921,0.0061474813274765
67.68170066072967,0.0062697987805166
67.71042803792014,0.0062788033643224
67.7391554151106,0.0060614561840502
67.76788279230105,0.0058787087376323
67.79661016949152,0.0059480912173413
67.82533754668198,0.0060796146277383
67.85406492387244,0.0060838475248526
67.8827923010629,0.006136978933242
67.91151967825337,0.0060542873365808
67.94024705544383,0.0060331933678876
67.9689744326343,0.006208663691785
67.99770180982476,0.0062194746347986
68.02642918701522,0.0061940545381554
68.05515656420569,0.006024424496921
68.08388394139615,0.0062529206729319
68.1126113185866,0.0062525378958853
68.14133869577707,0.0060903686793351
68.17006607296753,0.0062461702723595
68.19879345015799,0.0062187079746557
68.22752082734846,0.0059521274301767
68.25624820453892,0.0057794107301214
68.28497558172938,0.0061336043391372
68.31370295891985,0.0059820357518434
68.34243033611031,0.0056654066554836
68.37115771330078,0.0058477373749449
68.39988509049124,0.0060294575860778
68.4286124676817,0.0058453528525227
68.45733984487215,0.0065133902346799
68.48606722206262,0.006377465247495
68.51479459925308,0.0059713637997884
68.54352197644354,0.0061467347212728
68.572249353634,0.0062213559408156
68.60097673082447,0.0060771565353291
68.62970410801493,0.0064720045498616
68.6584314852054,0.005549598773459
68.68715886239586,0.0055163718405261
68.71588623958633,0.0058983867045963
68.74461361677679,0.0060093139899322
68.77334099396725,0.0059541441012924
68.8020683711577,0.0059478765733043
68.83079574834817,0.0059739185773506
68.85952312553863,0.0059073293513981
68.8882505027291,0.0058061258226836
68.91697787991956,0.0056540024820543
68.94570525711002,0.0055504584986173
68.97443263430048,0.0055215355089553
69.00316001149095,0.0055044580146678
69.03188738868141,0.005634786209041
69.06061476587188,0.0055693819283527
69.08934214306234,0.0054210450772414
69.1180695202528,0.0056143292811246
69.14679689744325,0.0057802803451885
69.17552427463372,0.0058304642018964
69.20425165182418,0.0058170299207037
69.23297902901464,0.0058536694101627
69.2617064062051,0.0057810184155784
69.29043378339557,0.0056506873881881
69.31916116058603,0.0058768453199427
69.3478885377765,0.0056613417252426
69.37661591496696,0.0055733426710865
69.40534329215743,0.0053947996446832
69.43407066934789,0.0056858213689046
69.46279804653835,0.0058150323354272
69.4915254237288,0.0057231733293069
69.52025280091927,0.0059467918803364
69.54898017810973,0.0059615855480399
69.5777075553002,0.0061168831402432
69.60643493249066,0.0063586053852389
69.63516230968112,0.0058880265254028
69.66388968687158,0.0059700290593005
69.69261706406205,0.0059889869302158
69.72134444125251,0.0064052889986547
69.75007181844298,0.006356764417566
69.77879919563344,0.0050006646698034
69.8075265728239,0.0070281852506776
69.83625395001435,0.0090208595719076
69.86498132720482,0.0095610002393828
69.89370870439528,0.0107519462166113
69.92243608158574,0.013761753064122
69.95116345877621,0.0155093707906756
69.97989083596667,0.0171827363328411
70.00861821315713,0.0175163345690574
70.0373455903476,0.0176104282039571
70.06607296753806,0.0173597525848453
70.09480034472853,0.0178738471655149
70.12352772191899,0.0177278218393464
70.15225509910945,0.0135704996264434
70.1809824762999,0.0123510807620399
70.20970985349037,0.0101015382463559
70.23843723068083,0.0074025377700921
70.2671646078713,0.0089381114130052
70.29589198506176,0.0083614363617599
70.32461936225222,0.0074559896046299
70.35334673944269,0.0071761483771877
70.38207411663315,0.0071871740523664
70.41080149382361,0.007385807149606
70.43952887101408,0.0074729529351093
70.46825624820454,0.007242389123917
70.496983625395,0.0070503521588197
70.52571100258545,0.0067514598169681
70.55443837977592,0.0074501525651989
70.58316575696638,0.0074065033304956
70.61189313415684,0.006480477948918
70.64062051134731,0.0066057424936403
70.66934788853777,0.0063151318689169
70.69807526572824,0.0065311554736063
70.7268026429187,0.0064667881025853
70.75553002010916,0.0067395189544999
70.78425739729963,0.0066264555478581
70.81298477449009,0.0060349780062017
70.84171215168054,0.0070518043856179
70.870439528871,0.0074234636099218
70.89916690606147,0.0071913649968591
70.92789428325193,0.0072706667277135
70.9566216604424,0.0080044884011387
70.98534903763286,0.0068103935018359
71.01407641482332,0.007429201318843
71.04280379201379,0.007991224198063
71.07153116920425,0.0080263045364346
71.10025854639471,0.0075074330865811
71.12898592358518,0.0074346961018233
71.15771330077564,0.0073013763044204
71.18644067796609,0.0069610314629272
71.21516805515655,0.0078635982724495
71.24389543234702,0.0065544539455816
71.27262280953748,0.0060756524130456
71.30135018672794,0.0066084227088033
71.33007756391841,0.0067606493721271
71.35880494110887,0.0070078842323359
71.38753231829934,0.0071012007035631
71.4162596954898,0.0071931290784458
71.44498707268026,0.0067317678379946
71.47371444987073,0.0065510631074384
71.50244182706119,0.0063639112603426
71.53116920425164,0.0068505632450642
71.5598965814421,0.0066256305683688
71.58862395863257,0.0064844506296859
71.61735133582303,0.0065363442827152
71.6460787130135,0.0060757973427589
71.67480609020396,0.0062598771659054
71.70353346739442,0.0063858436005444
71.73226084458489,0.006309893962747
71.76098822177535,0.0062786645103119
71.78971559896581,0.0065482909659612
71.81844297615628,0.0064311659109675
71.84717035334674,0.0064117182224721
71.87589773053719,0.0071558164467776
71.90462510772765,0.0070635742766032
71.93335248491812,0.0071238379340274
71.96207986210858,0.0074402083415024
71.99080723929904,0.0075674817862469
72.01953461648951,0.0071125410610433
72.04826199367997,0.0074286454561921
72.07698937087044,0.0070256551253466
72.1057167480609,0.0065552095654537
72.13444412525136,0.0064438494919584
72.16317150244183,0.0062212882479185
72.19189887963229,0.0066533574091708
72.22062625682274,0.0067850141723348
72.2493536340132,0.006885283371907
72.27808101120367,0.0068418089305487
72.30680838839413,0.0062939005834024
72.3355357655846,0.0075724001674761
72.36426314277506,0.0073441091751575
72.39299051996552,0.007038472411715
72.42171789715599,0.0072282405840033
72.45044527434645,0.0070773019723402
72.47917265153691,0.0070244535956467
72.50790002872738,0.0072523256245825
72.53662740591784,0.0071140989199304
72.56535478310829,0.0070498404342852
72.59408216029875,0.0072155504207164
72.62280953748922,0.0071953141687631
72.65153691467968,0.0069830089980588
72.68026429187015,0.0064345391514098
72.70899166906061,0.0062981877331489
72.73771904625107,0.0063127653788133
72.76644642344154,0.0068538602565687
72.795173800632,0.0063709167738896
72.82390117782246,0.0064224790573102
72.85262855501293,0.0061631276695869
72.88135593220339,0.0063597323726061
72.91008330939384,0.0064763009460511
72.9388106865843,0.0061801210672851
72.96753806377477,0.0064713651902349
72.99626544096523,0.0058523319738736
73.0249928181557,0.0059447736778746
73.05372019534616,0.0060280119990536
73.08244757253662,0.0065488497158009
73.11117494972709,0.0064789577936604
73.13990232691755,0.0066705436437369
73.16862970410801,0.0067971264617968
73.19735708129848,0.0068308320195356
73.22608445848894,0.0065599703957593
73.25481183567939,0.0068711062797583
73.28353921286985,0.0065081800404313
73.31226659006032,0.0062988554178013
73.34099396725078,0.0066541216667624
73.36972134444125,0.0067166977796098
73.39844872163171,0.0063571483400348
73.42717609882217,0.006425819685524
73.45590347601264,0.0061963273919993
73.4846308532031,0.0059893222135452
73.51335823039356,0.0064602208219557
73.54208560758403,0.0062591011372719
73.57081298477449,0.0063208902548105
73.59954036196494,0.0064808880051019
73.6282677391554,0.0064975308086175
73.65699511634587,0.006390068896058
73.68572249353633,0.0066268782483181
73.7144498707268,0.0066031243827093
73.74317724791726,0.0070063261754767
73.77190462510772,0.0069849413072223
73.80063200229819,0.0067114818635654
73.82935937948865,0.0066295024400716
73.85808675667911,0.0068823729095769
73.88681413386958,0.0067253565270823
73.91554151106004,0.006844164647716
73.94426888825049,0.0066921672653155
73.97299626544095,0.0065004055984123
74.00172364263142,0.006319506017157
74.03045101982188,0.0062637882735067
74.05917839701235,0.0062825312980095
74.08790577420281,0.0063347373066168
74.11663315139327,0.0062486566733766
74.14536052858374,0.0063650218810218
74.1740879057742,0.00584844460324
74.20281528296466,0.0079086247816302
74.23154266015513,0.0076918469605523
74.26027003734559,0.0118584920427285
74.28899741453604,0.0111737504990991
74.3177247917265,0.0115249974936447
74.34645216891697,0.0127039644730394
74.37517954610743,0.0129576858006083
74.4039069232979,0.0130015878263861
74.43263430048836,0.0129346549432849
74.46136167767882,0.0120645456413971
74.49008905486929,0.0107142851856803
74.51881643205975,0.009482144997079
74.54754380925021,0.0087709490639511
74.57627118644068,0.0080501844020259
74.60499856363114,0.0078669432013357
74.63372594082159,0.0083372102737846
74.66245331801206,0.007364952460707
74.69118069520252,0.0067363606005437
74.71990807239298,0.0064209513426898
74.74863544958345,0.0064498568524133
74.77736282677391,0.0066338222165117
74.80609020396437,0.0064161738371559
74.83481758115484,0.0062717765072201
74.8635449583453,0.0064063216119072
74.89227233553576,0.0066176934663492
74.92099971272623,0.0065014077667163
74.94972708991669,0.0065322423034652
74.97845446710714,0.0068488271206096
75.0071818442976,0.0068689118156975
75.03590922148807,0.0068078896634302
75.06463659867853,0.0071012697972321
75.093363975869,0.006737359800349
75.12209135305946,0.0065498962631722
75.15081873024992,0.0067699361388226
75.17954610744039,0.006698949535627
75.20827348463085,0.0064846194742464
75.23700086182131,0.0066993174709705
75.26572823901178,0.0067392467020285
75.29445561620224,0.0066084560049146
75.32318299339269,0.0066776039322046
75.35191037058316,0.0066588281806666
75.38063774777362,0.0065715101144193
75.40936512496408,0.0068785234177383
75.43809250215455,0.0068326095548875
75.46681987934501,0.0066040966977417
75.49554725653547,0.0064965257590636
75.52427463372594,0.0064814389499861
75.5530020109164,0.0066692744007707
75.58172938810687,0.0069409847873293
75.61045676529733,0.0064621705448132
75.63918414248779,0.0064800773000552
75.66791151967824,0.0059356752906802
75.6966388968687,0.0065496211807527
75.72536627405917,0.0064057073395816
75.75409365124963,0.0068937563792402
75.7828210284401,0.006832792570241
75.81154840563056,0.0068602079222541
75.84027578282102,0.0075034037496389
75.86900316001149,0.0076916495530614
75.89773053720195,0.0074738052517944
75.92645791439242,0.0074265024191623
75.95518529158288,0.0074019601067242
75.98391266877334,0.0073108025411962
76.01264004596379,0.007367991237107
76.04136742315426,0.0072504275608527
76.07009480034472,0.0070754610253126
76.09882217753518,0.0070464202776071
76.12754955472565,0.0065842632267129
76.15627693191611,0.0064672860507951
76.18500430910657,0.0065585293193735
76.21373168629704,0.00652759444194
76.2424590634875,0.0064367388108608
76.27118644067797,0.0065974419938595
76.29991381786843,0.0068001734197734
76.32864119505889,0.0068207461004983
76.35736857224934,0.0069220940826305
76.3860959494398,0.0069201748159398
76.41482332663027,0.0065769896316907
76.44355070382073,0.0064363257115381
76.4722780810112,0.0066894813374082
76.50100545820166,0.0065921545120103
76.52973283539212,0.0059826588267771
76.55846021258259,0.0062939995706859
76.58718758977305,0.006545908429534
76.61591496696352,0.0064425866594983
76.64464234415398,0.00662781787493
76.67336972134443,0.0066073705048498
76.70209709853489,0.006348687062463
76.73082447572536,0.0066450318476277
76.75955185291582,0.0069729037856829
76.78827923010628,0.0066946286754478
76.81700660729675,0.0065566242080728
76.84573398448721,0.0066696722793343
76.87446136167767,0.0066004896247725
76.90318873886814,0.0068535475172908
76.9319161160586,0.0069836309762822
76.96064349324907,0.006792566885142
76.98937087043953,0.0065839540793202
77.01809824762998,0.0064717588749588
77.04682562482044,0.006994224180873
77.0755530020109,0.0069020563540036
77.10428037920137,0.0057908580458336
77.13300775639183,0.0064751665058349
77.1617351335823,0.0064726876270918
77.19046251077276,0.0065212140877243
77.21918988796322,0.0064942027374607
77.24791726515369,0.0066518785339288
77.27664464234415,0.0065191699195706
77.30537201953462,0.006712351136251
77.33409939672508,0.006461623164039
77.36282677391553,0.006622583176863
77.39155415110599,0.0063914891222931
77.42028152829646,0.0064016511285817
77.44900890548692,0.0064812803730443
77.47773628267738,0.0066622589320492
77.50646365986785,0.0064421894148298
77.53519103705831,0.0064609754535784
77.56391841424877,0.0065561042182927
77.59264579143924,0.0065217321000507
77.6213731686297,0.0064633052742974
77.65010054582017,0.0066906207738722
77.67882792301063,0.007162459332671
77.70755530020108,0.0070646863789285
77.73628267739154,0.0071560929954472
77.765010054582,0.0073315016728977
77.79373743177247,0.0070335003563804
77.82246480896293,0.0070716687969507
77.8511921861534,0.0067761725616272
77.87991956334386,0.0070457877398053
77.90864694053433,0.0055488591111772
77.93737431772479,0.0063262447877859
77.96610169491525,0.007010957700169
77.99482907210572,0.0055692576322039
78.02355644929618,0.007537487040118
78.05228382648663,0.0072172571519161
78.0810112036771,0.0068093573611889
78.10973858086756,0.0066437133495981
78.13846595805802,0.0068270737741749
78.16719333524848,0.006739263974738
78.19592071243895,0.0067710359015723
78.22464808962941,0.0079853416524854
78.25337546681988,0.0078436285195101
78.28210284401034,0.0075017079197842
78.3108302212008,0.0111821905332549
78.33955759839127,0.0123760603574653
78.36828497558173,0.0122939149277194
78.39701235277218,0.0147638212563243
78.42573972996264,0.0185472360329206
78.4544671071531,0.0194068424258271
78.48319448434357,0.0189665727486145
78.51192186153403,0.0188479666264257
78.5406492387245,0.0185427483004942
78.56937661591496,0.0162898571077548
78.59810399310543,0.0141072886734438
78.62683137029589,0.0119164675929292
78.65555874748635,0.009886733435292
78.68428612467682,0.0086349191665165
78.71301350186728,0.0081062511290808
78.74174087905773,0.0074409839970097
78.7704682562482,0.0073424212635098
78.79919563343866,0.007516955671578
78.82792301062912,0.0075076500438055
78.85665038781958,0.007307421202086
78.88537776501005,0.0075451614912807
78.91410514220051,0.0075391579811875
78.94283251939098,0.0073529002750242
78.97155989658144,0.0070280688056457
79.0002872737719,0.0070891960789207
79.02901465096237,0.0075801432496108
79.05774202815283,0.0074990077536224
79.08646940534328,0.0072761045708882
79.11519678253374,0.0071902534085645
79.14392415972421,0.0071042203163788
79.17265153691467,0.0071012124877079
79.20137891410513,0.0072802589336474
79.2301062912956,0.0071984533319492
79.25883366848606,0.006725765235411
79.28756104567653,0.0066518977332949
79.31628842286699,0.0064626560799278
79.34501580005745,0.0063033997733874
79.37374317724792,0.0065633347974046
79.40247055443838,0.0064656225737394
79.43119793162883,0.0064328892509551
79.4599253088193,0.0065430474921288
79.48865268600976,0.0065950130972142
79.51738006320022,0.006441069209493
79.54610744039068,0.0063362403276252
79.57483481758115,0.0065379834478912
79.60356219477161,0.0062049000002085
79.63228957196208,0.0060647416095618
79.66101694915254,0.0063164986817756
79.689744326343,0.0066093267386077
79.71847170353347,0.0066397431236521
79.74719908072393,0.0068094687183499
79.77592645791438,0.0071795532117157
79.80465383510484,0.0070344784779218
79.83338121229531,0.0070336650520377
79.86210858948577,0.0075140172937842
79.89083596667624,0.0076309382601646
79.9195633438667,0.0070238023965226
79.94829072105716,0.0070926757591222
79.97701809824763,0.0072871296185361
80.00574547543809,0.0070663781384205
80.03447285262855,0.0073200013581866
80.06320022981902,0.0070919344575651
80.09192760700948,0.0068336141388266
80.12065498419993,0.0066895209575973
80.1493823613904,0.0070705258366991
80.17810973858086,0.0068301601087321
80.20683711577132,0.0064609036690485
80.23556449296179,0.0064716427001992
80.26429187015225,0.0064223575740834
80.29301924734271,0.006419478048994
80.32174662453318,0.0073789932091519
80.35047400172364,0.0072305416818388
80.3792013789141,0.0074062886489038
80.40792875610457,0.0074572278965525
80.43665613329503,0.0076703900854108
80.46538351048548,0.0075262983780889
80.49411088767594,0.0075592839267313
80.52283826486641,0.0066200100657218
80.55156564205687,0.0063203607417982
80.58029301924734,0.0062604474390834
80.6090203964378,0.0063459788318491
80.63774777362826,0.0064468649331762
80.66647515081873,0.0063050210936133
80.69520252800919,0.0065093598372734
80.72392990519965,0.006417768483248
80.75265728239012,0.0062336271618307
80.78138465958058,0.0063618802399123
80.81011203677103,0.0061835474852474
80.8388394139615,0.0069048924827331
80.86756679115196,0.0068331556802713
80.89629416834242,0.0066043511012754
80.92502154553289,0.0066001095248908
80.95374892272335,0.0066438117876062
80.98247629991381,0.0070531204810273
81.01120367710428,0.0068667890844772
81.03993105429474,0.0067580678460191
81.0686584314852,0.0066604004032362
81.09738580867567,0.0066341780015616
81.12611318586613,0.007140394910762
81.15484056305658,0.0067725661668216
81.18356794024704,0.0065208620347173
81.21229531743751,0.0065160977073883
81.24102269462797,0.0063485907183143
81.26975007181844,0.0063826448953709
81.2984774490089,0.0066816693311772
81.32720482619936,0.0066422161967354
81.35593220338983,0.0063120478781021
81.38465958058029,0.006724575163428
81.41338695777075,0.0068616336188308
81.44211433496122,0.0068556684841201
81.47084171215168,0.0068706328990192
81.49956908934213,0.0066274280097715
81.5282964665326,0.006544432060988
81.55702384372306,0.006587981752057
81.58575122091352,0.0066245494073837
81.61447859810399,0.0065234267655153
81.64320597529445,0.0064522375834256
81.67193335248491,0.0065944404077783
81.70066072967538,0.006825808387476
81.72938810686584,0.006928368099653
81.7581154840563,0.0066019618119237
81.78684286124677,0.0065003012173178
81.81557023843723,0.0065513116535702
81.84429761562768,0.0066193007579302
81.87302499281815,0.0064631321851415
81.90175237000861,0.0067211821949184
81.93047974719907,0.0065070750641124
81.95920712438954,0.0066571098453719
81.98793450158,0.0074042872144351
82.01666187877046,0.0080383890349941
82.04538925596093,0.0105025640235609
82.07411663315139,0.0153395494481992
82.10284401034185,0.017697276534548
82.13157138753232,0.0188297711601718
82.16029876472278,0.0198919381961541
82.18902614191323,0.0204875785147923
82.2177535191037,0.0196451751506836
82.24648089629416,0.0183158206636826
82.27520827348462,0.0197159352509356
82.30393565067509,0.0145097695080645
82.33266302786555,0.0115131620057469
82.36139040505601,0.0120805393500492
82.39011778224648,0.010588008224408
82.41884515943694,0.0094080748521017
82.4475725366274,0.0091761977376475
82.47629991381787,0.0090748258142969
82.50502729100832,0.0083789705780171
82.53375466819878,0.0069601000851821
82.56248204538925,0.0064343547408529
82.59120942257971,0.0067021308440539
82.61993679977017,0.0067688907916967
82.64866417696064,0.0063646618701442
82.6773915541511,0.0066371295259708
82.70611893134156,0.0068076757578726
82.73484630853203,0.0066973363045424
82.76357368572249,0.0066168984347171
82.79230106291295,0.0068005989424285
82.82102844010342,0.0068051600217035
82.84975581729387,0.0068293725083831
82.87848319448433,0.0067638345746843
82.9072105716748,0.0067885724660553
82.93593794886526,0.0064392299438033
82.96466532605572,0.0062408111807317
82.99339270324619,0.0063769985725288
83.02212008043665,0.0063785929247149
83.05084745762711,0.0062281581111053
83.07957483481758,0.0061687858150744
83.10830221200804,0.0062943374395182
83.1370295891985,0.0064805784848114
83.16575696638897,0.0065950423852042
83.19448434357942,0.0065737716672024
83.22321172076988,0.0065108286109566
83.25193909796035,0.0063864347747988
83.28066647515081,0.0062553068248996
83.30939385234127,0.0067803308120724
83.33812122953174,0.0065415555073407
83.3668486067222,0.0065882909093454
83.39557598391266,0.0067175892812193
83.42430336110313,0.0067488989006982
83.45303073829359,0.0068133823056647
83.48175811548406,0.0067197509761518
83.51048549267452,0.0064973562203091
83.53921286986497,0.0064724006877619
83.56794024705543,0.0066684494866041
83.5966676242459,0.0067047044213903
83.62539500143636,0.0061163451252583
83.65412237862682,0.0063762818592677
83.68284975581729,0.0066184185260988
83.71157713300775,0.0066645498396782
83.74030451019821,0.0066613677732957
83.76903188738868,0.0064952208663942
83.79775926457914,0.0066090236875994
83.8264866417696,0.0074124637675393
83.85521401896007,0.0046534061982423
83.88394139615052,0.0063606064776375
83.91266877334098,0.0082047111182857
83.94139615053145,0.0051917055822264
83.97012352772191,0.0059560255976922
83.99885090491237,0.0064853366788812
84.02757828210284,0.0062157596412669
84.0563056592933,0.0063886954305761
84.08503303648376,0.0067425551767512
84.11376041367423,0.0067269183279319
84.14248779086469,0.0065862743333423
84.17121516805516,0.0065132557682501
84.19994254524562,0.0064044748419607
84.22866992243607,0.0064843869591078
84.25739729962653,0.0067288480893606
84.286124676817,0.0067302149841544
84.31485205400746,0.0062688773481596
84.34357943119792,0.0062426266822056
84.37230680838839,0.0065166332927303
84.40103418557885,0.0066716301482996
84.42976156276931,0.0065577672913235
84.45848893995978,0.0064066670080213
84.48721631715024,0.0063751627421859
84.5159436943407,0.0064403582512104
84.54467107153117,0.0064897098299261
84.57339844872162,0.0067107258472803
84.60212582591208,0.006422683893453
84.63085320310255,0.0070160245021492
84.65958058029301,0.0070165551314515
84.68830795748347,0.0070366584407955
84.71703533467394,0.006797773668765
84.7457627118644,0.0065625089318549
84.77449008905486,0.0066630138338227
84.80321746624533,0.0066206536435173
84.83194484343579,0.0065226201861193
84.86067222062626,0.0065330504948032
84.88939959781672,0.0060936085786899
84.91812697500717,0.0064266780515043
84.94685435219763,0.0065895014966852
84.9755817293881,0.0064979283551395
85.00430910657856,0.0064215278146653
85.03303648376902,0.0064027597094924
85.06176386095949,0.0062638133895128
85.09049123814995,0.0061673916628384
85.11921861534042,0.0063966549125281
85.14794599253088,0.0064406142876725
85.17667336972134,0.0061720356492026
85.2054007469118,0.0062668724113856
85.23412812410227,0.0061894072077993
85.26285550129272,0.0061066125111228
85.29158287848318,0.0062401282330188
85.32031025567365,0.0063930598153916
85.34903763286411,0.0061311721771567
85.37776501005457,0.0062823017792307
85.40649238724504,0.0063788806001307
85.4352197644355,0.0068328059814819
85.46394714162597,0.0058173108248352
85.49267451881643,0.0062883748876221
85.52140189600689,0.0059848221798715
85.55012927319736,0.0061508972392053
85.57885665038782,0.0060241509091035
85.60758402757827,0.0063221949473642
85.63631140476873,0.0060729629559121
85.6650387819592,0.0063188094968032
85.69376615914966,0.006099009098814
85.72249353634012,0.0060763418841217
85.75122091353059,0.0057981751751865
85.77994829072105,0.0060091654122188
85.80867566791152,0.008429870506389
85.83740304510198,0.0103241717630619
85.86613042229244,0.0112353293243398
85.8948577994829,0.0161412574141354
85.92358517667337,0.0167022214914251
85.95231255386382,0.0134068234135048
85.98103993105428,0.018127229765555735
86.00976730824475,0.0204274827715538
86.03849468543521,0.0215198239326401
86.06722206262567,0.0205657695700752
86.09594943981614,0.0191193899276307
86.1246768170066,0.0176141317768147
86.15340419419707,0.0158684586807863
86.18213157138753,0.0126805092694916
86.210858948578,0.0154450679547225
86.23958632576846,0.0159194106124283
86.26831370295892,0.0061601260181346
86.29704108014937,0.0109765535958083
86.32576845733983,0.0116145645102646
86.3544958345303,0.0081047715802635
86.38322321172076,0.0090184851705657
86.41195058891122,0.0094665409228271
86.44067796610169,0.0089942764622326
86.46940534329215,0.0090828963472562
86.49813272048262,0.0080212198296318
86.52686009767308,0.0065508556806979
86.55558747486354,0.0065592661613744
86.584314852054,0.0074197885618204
86.61304222924447,0.0074081839102017
86.64176960643492,0.0075919617309424
86.67049698362538,0.0075994374783007
86.69922436081585,0.007530489067875
86.72795173800631,0.0075258367833283
86.75667911519677,0.007497773754028
86.78540649238724,0.0073678604675804
86.8141338695777,0.0071398493301037
86.84286124676817,0.0070135185541293
86.87158862395863,0.0071218589258798
86.9003160011491,0.007417028282047
86.92904337833956,0.0073385772907294
86.95777075553002,0.0072484480549314
86.98649813272047,0.0071245533421402
87.01522550991093,0.0072836947326998
87.0439528871014,0.0079001866722466
87.07268026429186,0.0070403250152754
87.10140764148233,0.0077921828936666
87.13013501867279,0.0092828045368577
87.15886239586325,0.0062026186849164
87.18758977305372,0.0074328996620841
87.21631715024418,0.0075205030294071
87.24504452743464,0.0069598796529941
87.27377190462511,0.0066156137752767
87.30249928181557,0.007450861571572
87.33122665900602,0.006516698583383
87.35995403619648,0.0062040020177969
87.38868141338695,0.0069170632826088
87.41740879057741,0.0069639308729817
87.44613616776788,0.0070983807439095
87.47486354495834,0.0070843138244022
87.5035909221488,0.0068473200615876
87.53231829933927,0.0074142439981603
87.56104567652973,0.0071977211048702
87.5897730537202,0.0069802749455171
87.61850043091066,0.0072419303298684
87.64722780810112,0.0070217919906541
87.67595518529157,0.0069399635387832
87.70468256248203,0.0071903402526766
87.7334099396725,0.0075518668542122
87.76213731686296,0.0067274121399389
87.79086469405343,0.006991143425681
87.81959207124389,0.0070142325389288
87.84831944843435,0.0066809201733265
87.87704682562482,0.0065744782297161
87.90577420281528,0.0066432062015836
87.93450158000574,0.0065143957391832
87.96322895719621,0.0058806779092289
87.99195633438667,0.0068043088415888
88.02068371157712,0.0070975889783286
88.04941108876758,0.0068191014524152
88.07813846595805,0.0070612740675561
88.10686584314851,0.0072576907920945
88.13559322033898,0.0073218464750231
88.16432059752944,0.0072996226432215
88.1930479747199,0.0072724499062445
88.22177535191037,0.0071317213079389
88.25050272910083,0.0067654247702474
88.2792301062913,0.0072548120455968
88.30795748348176,0.0076529586935512
88.33668486067221,0.0064303482301291
88.36541223786267,0.0079854618188755
88.39413961505313,0.0074816031119629
88.4228669922436,0.0072122699429927
88.45159436943406,0.0073540754230158
88.48032174662453,0.0072433105948474
88.50904912381499,0.0071090196940312
88.53777650100545,0.0070542869175612
88.56650387819592,0.0065084563849399
88.59523125538638,0.0065579522866657
88.62395863257684,0.0070073116250768
88.65268600976731,0.0066965679234875
88.68141338695776,0.0065463186970077
88.71014076414822,0.0065666493052744
88.73886814133868,0.0067575136569375
88.76759551852915,0.0066924871332602
88.79632289571961,0.0068239881857915
88.82505027291008,0.0070077328173934
88.85377765010054,0.0069291321667026
88.882505027291,0.0073964469191395
88.91123240448147,0.0074519836293213
88.93995978167193,0.0073395236641837
88.9686871588624,0.0072047277926131
88.99741453605286,0.0069926557228115
89.02614191324331,0.0069109971745501
89.05486929043377,0.0068208188189157
89.08359666762424,0.0069169975193667
89.1123240448147,0.0066828298884585
89.14105142200516,0.0067841787186098
89.16977879919563,0.0071924644949846
89.19850617638609,0.0072108417359502
89.22723355357655,0.0071133899545156
89.25596093076702,0.0072457273222546
89.28468830795748,0.007255814937177
89.31341568514794,0.0071792302598919
89.34214306233841,0.0073842113065236
89.37087043952886,0.0073740548154825
89.39959781671932,0.0070480601639941
89.42832519390979,0.0067380491290391
89.45705257110025,0.0075061186197131
89.48577994829071,0.0069692274788687
89.51450732548118,0.0074020377858687
89.54323470267164,0.0073389587776332
89.5719620798621,0.0071417240927681
89.60068945705257,0.0069784194761672
89.62941683424303,0.0068153346796165
89.6581442114335,0.006631513438136
89.68687158862396,0.0064602714502524
89.71559896581441,0.0066608700764042
89.74432634300487,0.006558723992366
89.77305372019534,0.0064636953439952
89.8017810973858,0.0073427991569202
89.83050847457626,0.0069001241383336
89.85923585176673,0.0069857199516969
89.88796322895719,0.0076640391926444
89.91669060614765,0.0075177153237943
89.94541798333812,0.0072999152994861
89.97414536052858,0.0073445110345325
90.00287273771904,0.0070685045849338
90.03160011490951,0.006722518624679
90.06032749209996,0.0069003335041847
90.08905486929042,0.0079300948688363
90.11778224648089,0.0057168829880068
90.14650962367136,0.0073408354973729
90.1752370008618,0.0145956765143477
90.20396437805228,0.0158044814080483
90.23269175524274,0.0176136008169255
90.2614191324332,0.0211066095272285
90.29014650962368,0.0196468003504004
90.31887388681412,0.0209615511625118
90.3476012640046,0.0215050902683992
90.37632864119506,0.0225422236406115
90.40505601838552,0.0128264423137915
90.43378339557596,0.0172739509349778
90.46251077276644,0.0129391177861211
90.4912381499569,0.0148088092339032
90.51996552714736,0.0087657393489546
90.54869290433784,0.0090148684623039
90.57742028152828,0.0114529190991584
90.60614765871875,0.0108493124388357
90.63487503590922,0.0101284331460687
90.66360241309968,0.0093170532181009
90.69232979029016,0.0092186101539896
90.7210571674806,0.0093429579615807
90.74978454467106,0.0088336532133093
90.77851192186152,0.0070736335955537
90.807239299052,0.0064523845053735
90.83596667624244,0.0070999750994753
90.86469405343291,0.0073677476378441
90.89342143062338,0.0064947645239618
90.92214880781384,0.006238000906937
90.9508761850043,0.0079739130658645
90.97960356219475,0.0073629064515255
91.00833093938525,0.0074644339411656
91.0370583165757,0.007414903363368
91.06578569376616,0.0068170702389901
91.0945130709566,0.0061394700342769
91.12324044814709,0.0087314918818236
91.15196782533754,0.0075178804753285
91.180695202528,0.006398756309977
91.20942257971846,0.0071450736204272
91.23814995690891,0.0072535504871342
91.2668773340994,0.0068808078634602
91.29560471128984,0.0071101047559962
91.32433208848032,0.0070946128517992
91.35305946567078,0.0069201910297562
91.38178684286125,0.0072106273032822
91.41051422005172,0.0074609710975897
91.43924159724216,0.0068417530501773
91.46796897443262,0.0068837154573017
91.49669635162309,0.0096882777245479
91.52542372881356,0.0048064789965573
91.554151106004,0.0070233143471099
91.58287848319448,0.0076058784708764
91.61160586038494,0.0074431081803319
91.6403332375754,0.0075700231523583
91.66906061476588,0.007510792602066
91.69778799195632,0.007080088821982
91.7265153691468,0.0071334357579754
91.75524274633726,0.007286288138961
91.78397012352772,0.0068355193218858
91.81269750071816,0.0067271773977433
91.84142487790864,0.0072372248722436
91.8701522550991,0.0074349382999813
91.89887963228956,0.0071814799529962
91.92760700948004,0.0076571116933161
91.95633438667048,0.0072830580481195
91.98506176386095,0.0075711698724265
92.01378914105142,0.0075709826709133
92.04251651824188,0.0072166099619366
92.07124389543236,0.0071199638764968
92.0999712726228,0.0075262034303832
92.12869864981326,0.0071702871993972
92.15742602700372,0.0068167027152699
92.1861534041942,0.007113444248094
92.21488078138464,0.0074836948619821
92.24360815857511,0.0071111624544177
92.27233553576558,0.0072227703731559
92.30106291295604,0.006610455476358
92.3297902901465,0.0069527175259154
92.35851766733695,0.0072091044163764
92.38724504452745,0.0064952822667561
92.4159724217179,0.0065498316096838
92.44469979890836,0.0069239713820995
92.4734271760988,0.0072452380572966
92.50215455328927,0.0071179409516326
92.53088193047974,0.0072676555778267
92.5596093076702,0.0073367835890018
92.58833668486066,0.0072844204058365
92.61706406205111,0.0072681380823578
92.6457914392416,0.0071686949047756
92.67451881643206,0.0067259367372667
92.70324619362252,0.0068707082573033
92.73197357081298,0.0071132951233405
92.76070094800345,0.0068397975402511
92.78942832519392,0.006508991340362
92.81815570238436,0.0064994044108434
92.84688307957482,0.0066051481779686
92.87561045676529,0.0065348054639469
92.90433783395576,0.0065470649949914
92.9330652111462,0.0064480977888879
92.96179258833668,0.0063194773887021
