timestamp,rms
0.0,0.0033306128237699
0.0051195621490478,0.0033521472735934
0.0441200733184814,0.0031256395115568
0.0469937324523925,0.0032334578134781
0.0879900455474853,0.0022587294664354
0.1304671764373779,0.0022390107282357
0.1367373466491699,0.0022909792014135
0.1785192489624023,0.002232836568325
0.1812303066253662,0.0023028524358056
0.2281124591827392,0.0023173409897235
0.2684869766235351,0.0022947637124085
0.273730993270874,0.0026511254924094
0.3174612522125244,0.0041123680596022
0.3283610343933105,0.0050595452379975
0.3624298572540283,0.0055526193137854
0.4055447578430176,0.0061077384366146
0.4110438823699951,0.0065759639612031
0.448399543762207,0.0070275893418439
0.4507844448089599,0.0074523021505818
0.4928338527679443,0.0080544063335292
0.544877290725708,0.0077418867991596
0.553978681564331,0.0075068590940485
0.5861737728118896,0.007707661996143
0.5922362804412842,0.0079791511074498
0.6283321380615234,0.0076512157581132
0.6773004531860352,0.0072808891398413
0.7189743518829346,0.0066351125494914
0.7238633632659912,0.0061710475910118
0.7660009860992432,0.0057405323785631
0.8073644638061523,0.0050093142963022
0.8100950717926025,0.0042037841536565
0.8521630764007568,0.0036103431398433
0.8559746742248535,0.0023508003770953
0.898801326751709,0.0023773994881338
0.9434285163879396,0.0022143634753032
0.9846093654632568,0.0024360239688161
0.9881150722503662,0.0023686614635666
1.034327745437622,0.002480741368594
1.0763015747070312,0.0026857137377988
1.0860188007354736,0.0025859680097447
1.11954927444458,0.0024563404523286
1.1270620822906494,0.0024371571054627
1.1649882793426514,0.0024696322244788
1.209733247756958,0.0025128999051906
1.2123799324035645,0.0024004202035306
1.2522039413452148,0.0023949445870124
1.2564876079559326,0.0020630849939778
1.3002798557281494,0.0021637062764038
1.3460705280303955,0.0021386654466333
1.3516511917114258,0.0021865029395606
1.392719268798828,0.0021359236343271
1.4031672477722168,0.0020445939188917
1.4392001628875732,0.0019997882868918
1.483618974685669,0.0019749515720934
1.494581937789917,0.0019034429544601
1.5336780548095703,0.001909324771101
1.5436341762542725,0.0019293173235738
1.5733942985534668,0.0019525419615335
1.617262363433838,0.0019671759169179
1.62913179397583,0.0020312671021615
1.6616861820220947,0.0020830625034531
1.667980670928955,0.0021031985425363
1.7088258266448977,0.0021038146446755
1.7544872760772705,0.0021378749001062
1.757509469985962,0.0021824532594806
1.7985444068908691,0.0020769130880849
1.8021869659423828,0.0022162965290153
1.845740795135498,0.002323266336322
1.8882577419281008,0.0023231208123263
1.8940997123718264,0.0022982232866164
1.933924436569214,0.002276001046712
1.9408831596374512,0.0022818855822861
1.983970642089844,0.0022527594330203
2.0268049240112305,0.0022019363933952
2.0307955741882324,0.0020977797854538
2.0742218494415283,0.0021130079538538
2.0789990425109863,0.0019534363591217
2.1177444458007812,0.0020356452561003
2.1241652965545654,0.0021122611571185
2.1731534004211426,0.0021248679725932
2.225621461868286,0.0022109510794434
2.269101858139038,0.0022414504919373
2.280102252960205,0.0022482276452524
2.3138272762298584,0.0023184106140545
2.317548990249634,0.0022290733082886
2.3612613677978516,0.0021948109476039
2.407754421234131,0.0021250270731866
2.448045015335083,0.0020624567250131
2.4588334560394287,0.0020772114970882
2.492175579071045,0.0020328199316907
2.5463993549346924,0.0020281300939885
2.555957794189453,0.0019988300614079
2.586121082305908,0.0020573141155576
2.587552309036255,0.0020973499785988
2.6331369876861572,0.0020691121161954
2.6731462478637695,0.0021314606670403
2.674881935119629,0.002164148941166
2.723510265350342,0.0021223472904409
2.7649343013763428,0.0021282860142998
2.769725561141968,0.0020742526401903
2.8124730587005615,0.0020783775939114
2.8608241081237793,0.002090784476194
2.8989126682281494,0.0021079084800243
2.9057581424713135,0.0021328613009485
2.950474262237549,0.0021925248862523
2.9949865341186523,0.0022206651214162
3.0050594806671143,0.0022459708663561
3.0505530834198,0.0022848221667453
3.0887696743011475,0.0022944690396994
3.132379055023194,0.0023287895097651
3.1364543437957764,0.0023593418535616
3.1747450828552246,0.0023052979608197
3.1772825717926025,0.0022802799685683
3.219256639480591,0.002361538011819
3.235269784927368,0.0022899459765554
3.274021863937378,0.0022799092817466
3.319409132003784,0.0023620390225712
3.3211164474487305,0.0022900936086471
3.361405849456787,0.0022369713610221
3.365044116973877,0.0023036108262216
3.4079701900482178,0.0022757039444942
3.4507601261138916,0.0023430455441447
3.4556069374084473,0.0023060311125998
3.49735164642334,0.0023038309573233
3.501808404922486,0.0022958193123641
3.544584274291992,0.0022608239768007
3.590711832046509,0.002249981352772
3.5914864540100098,0.0022324580038132
3.637415647506714,0.0022902904366327
3.640245199203491,0.0021576822423223
3.68139386177063,0.0022440382651108
3.728790283203125,0.0021890527079767
3.768223285675049,0.0023139830517324
3.7694926261901855,0.0022412996557761
3.8130507469177246,0.0022380038655751
3.8564202785491943,0.0022783022752486
3.857744455337525,0.0022771890679574
3.9007933139801025,0.0023135203452235
3.905668258666992,0.0023746485810716
3.942821264266968,0.0023574782907289
3.988197326660156,0.0023103275835063
3.9891796112060542,0.0023263686796654
4.032723426818848,0.0023289830674689
4.0423359870910645,0.0023241635329513
4.084850788116455,0.0023380381049172
4.128913402557373,0.002212326857204
4.130837917327881,0.0022325337218509
4.1759867668151855,0.0022452431988254
4.178735017776489,0.0022720612894029
4.224728584289551,0.0023399412309339
4.234079122543335,0.0023937679297142
4.27618932723999,0.0023154436231407
4.321198463439941,0.0023885365709671
4.323495149612427,0.0023769728319246
4.362797737121582,0.0023396763314715
4.365234375,0.0023871443266129
4.402686595916748,0.002457624717507
4.446760177612305,0.0023887252873892
4.449162244796753,0.0024699744383786
4.492172956466675,0.0024513115974263
4.496395826339722,0.0023878995429331
4.545952558517456,0.0023953445188241
4.58878493309021,0.0023660909184047
4.591861248016357,0.0023220776234713
4.630550861358643,0.0023149568683953
4.6326658725738525,0.0023534115664818
4.676332235336304,0.0023278940960401
4.723825693130493,0.0022698282072541
4.762802362442017,0.0023381586018484
4.767099380493164,0.0023332372745583
4.806837320327759,0.0023271678319922
4.851858854293823,0.0023251330858095
4.852426290512085,0.0022545596006643
4.8957602977752686,0.002233997099483
4.90039324760437,0.0022482527078484
4.943649053573608,0.0022176943985613
4.988516092300415,0.0021713231075648
4.992618560791016,0.0021282065873059
5.030888557434082,0.0021490996255327
5.041276454925537,0.0021242845018025
5.08235502243042,0.0021440071518448
5.123143434524536,0.0022079162467554
5.124823331832886,0.002220868102621
5.167514085769653,0.0022518087643443
5.171581745147705,0.0022296546287596
5.215897560119629,0.0023039776997065
5.262329578399658,0.0022428829295423
5.304272413253784,0.0023071059804409
5.309004545211792,0.0022234038041487
5.351027727127075,0.0021938608518565
5.401443719863892,0.0022393378611261
5.404958724975586,0.0021828663095453
5.442978620529175,0.0021559318626293
5.447472095489502,0.0021750567572402
5.487843751907349,0.0022327860967652
5.536244630813599,0.0022009637726855
5.537127733230591,0.0022229729389495
5.5802130699157715,0.0022262909809715
5.581070184707642,0.0022251517534264
5.623396635055542,0.0023132280618468
5.6347808837890625,0.0022899213702815
5.678147077560425,0.0023456653662097
5.72347092628479,0.0023389778163547
5.726151466369629,0.0023167573501248
5.763823986053467,0.002316246544838
5.769261837005615,0.0023229995353659
5.814483880996704,0.0023095713986626
5.869564056396484,0.0022307662979921
5.91517972946167,0.0022957456816059
5.953642129898071,0.0022449671253038
5.960995197296143,0.0022371224890151
6.003353118896484,0.0022569326247493
6.0497214794158936,0.0022418024035126
6.051705598831177,0.0022606245832317
6.090852737426758,0.0022688350208027
6.09352970123291,0.0022359383796825
6.136909008026123,0.0022607741300571
6.181467056274414,0.0022091663886515
6.228662490844727,0.0022584799905771
6.234357118606567,0.002265405185099
6.272777080535889,0.0022321803490338
6.285773038864136,0.0022592782163553
6.326635122299194,0.0022778075836186
6.372503280639648,0.0022825275115279
6.374639987945557,0.0034101414371938
6.414719581604004,0.0045635242273015
6.418560981750488,0.0048263472405726
6.4601218700408936,0.0055003558533382
6.5051045417785645,0.0062290660204448
6.508080720901489,0.0065662228287199
6.550506591796875,0.0069673328266161
6.552692174911499,0.0077275646776805
6.592654466629028,0.0077646703240665
6.639097213745117,0.0083230479496768
6.681370258331299,0.0081737031092167
6.688020467758179,0.0085378558564388
6.732221841812134,0.0086567584908884
6.777904272079468,0.0084925280306563
6.82222318649292,0.0085169556284925
6.864836931228638,0.0082139045859411
6.87739896774292,0.0080533009267775
6.920353651046753,0.0076368268883432
6.958500862121582,0.0072255540324139
6.96347451210022,0.006324375863655
7.009135007858276,0.0057657032709688
7.0131096839904785,0.0049001630368787
7.052404880523682,0.0037726744688095
7.101302146911621,0.0023592702052872
7.142820596694946,0.0022863506574517
7.144780874252319,0.0023143239341747
7.193284273147583,0.0022960647311716
7.200369834899902,0.0022673941276991
7.242552757263184,0.002288666099515
7.292085409164429,0.0022947882667596
7.337805271148682,0.0022453686755687
7.37990140914917,0.002296408273439
7.386045932769775,0.0023433821989862
7.432667970657349,0.0024258251481851
7.478975057601929,0.0024424227455566
7.479429721832275,0.0024464796992503
7.52642822265625,0.0024163062761327
7.5290610790252686,0.0024820811132235
7.563951253890991,0.0024501850068139
7.615238189697266,0.0024008192232066
7.616929054260254,0.0023984241093922
7.650531530380249,0.0021857812533576
7.657555818557739,0.0021080154017561
7.698485136032104,0.0021147405724203
7.749754428863525,0.0019816449423934
7.756134748458862,0.0019067260044705
7.793031692504883,0.0018634743368549
7.794865131378174,0.0018051091407203
7.837714672088623,0.0017799935187735
7.882165431976318,0.0018446013007837
7.884918928146362,0.0018213614948861
7.928874254226685,0.0019042420551471
7.9308390617370605,0.0018185440850378
7.972540616989136,0.0018557477654857
7.980447769165039,0.0018845515983998
8.024264812469482,0.0019553968306054
8.066611528396606,0.0020138271841711
8.070913553237915,0.0021007591493313
8.117016077041626,0.0020515544694791
8.118320226669312,0.0020816012936867
8.163045167922974,0.0021210725434675
8.206934928894043,0.0021278094078635
8.24808406829834,0.0020828731452006
8.250797271728516,0.0019761494978571
8.296215772628784,0.0020227609444295
8.340369701385498,0.0019439811841274
8.341444492340088,0.0018548973966037
8.389697551727295,0.0019772042120869
8.391202211380005,0.0019383498938371
8.43440866470337,0.0018986116098798
8.475796937942505,0.0019979559847
8.4846670627594,0.0020080269866925
8.525926113128662,0.0021906994637377
8.535173654556274,0.0023270951931211
8.575538158416748,0.0023749095797024
8.627763986587524,0.0023281845382241
8.659960746765137,0.0026697000861986
8.67234992980957,0.0026744236552332
8.712093830108643,0.0026237794751258
8.756938219070435,0.0024611529912988
8.763144254684448,0.0023663766724266
8.811422348022461,0.0029139711092138
8.856598377227783,0.0029885650428089
8.863451480865479,0.002935625161073
8.904018640518188,0.0026867835134978
8.906360864639282,0.0027193441947525
8.952051877975464,0.0027368383618988
8.997545003890991,0.0027165039746073
9.002848863601685,0.0021910080926524
9.042521476745604,0.0021747976831213
9.049573421478271,0.0021450055988379
9.086180210113524,0.0022075078838266
9.130252361297607,0.0021447691665562
9.137083530426024,0.0022099569295209
9.16847014427185,0.0037544839966081
9.17784547805786,0.0049424462339052
9.23034167289734,0.0063471785955248
9.27194118499756,0.0069938893496558
9.283832550048828,0.0073825049769967
9.31306290626526,0.0077357780080054
9.322336435317991,0.0082802260878788
9.360272407531738,0.008747409682783
9.364343881607056,0.009222163372679
9.404118299484251,0.0087981442294943
9.452597856521606,0.0086800099143968
9.46404504776001,0.0083106090005808
9.492064237594604,0.008103833661421
9.511441469192505,0.0082792869480071
9.543694257736206,0.0085424545637866
9.58716320991516,0.0084505583573976
9.591732501983644,0.0081696831165131
9.634535074234009,0.0074095202801699
9.651105165481567,0.0073227682014242
9.67868971824646,0.0067907994402528
9.7171950340271,0.0064116212992685
9.726444721221924,0.0057009272529924
9.765920877456663,0.0051256882057723
9.772422313690186,0.0040420104649343
9.820571660995483,0.003739250138067
9.864176511764526,0.0032417768138022
9.870727062225342,0.0021119677004383
9.90717077255249,0.0020085881232094
9.915289878845217,0.0020035603603222
9.956520080566406,0.0019928448506127
10.000828742980955,0.0020178801948948
10.006548166275024,0.0020127916606776
10.04477858543396,0.0021439283072785
10.04912781715393,0.0035377746595968
10.087568759918211,0.0048234159706015
10.133948802947998,0.0056217018346463
10.142339944839478,0.0059144413727887
10.17390275001526,0.006472707229911
10.191228866577148,0.0068009397256794
10.224050283432009,0.0072547152604219
10.240735530853271,0.0078893357180696
10.284931421279907,0.0077881975411894
10.331361055374146,0.0081386148932277
10.347610473632812,0.0081003007184238
10.368147611618042,0.0081505282366666
10.384089469909668,0.0083479579905451
10.419697761535645,0.0083204749656362
10.427366733551024,0.0086059892196335
10.461426258087158,0.0081030409696809
10.510101795196531,0.0085478352725351
10.516400814056396,0.0079093796675144
10.558405876159668,0.0074422695329789
10.564494609832764,0.0070023999624192
10.599523067474363,0.0066107290866879
10.611411571502686,0.0060407353750773
10.651562213897703,0.0049767002711641
10.706541776657104,0.0044000966976189
10.713467597961426,0.0033180869951015
10.74382781982422,0.0019580461088647
10.746973991394045,0.0018832355705868
10.787201166152954,0.001804547180719
10.834985256195068,0.0017674134526207
10.87726092338562,0.0018233403624048
10.883084535598757,0.0018153498730963
10.917192935943604,0.0037372303474591
10.960596323013306,0.0047855935037003
10.973310232162476,0.005730767372658
11.00969934463501,0.0058705400968288
11.01706337928772,0.0065788081178351
11.06244444847107,0.0069634417609016
11.111966609954834,0.0078772562550064
11.15097427368164,0.008397469170849
11.155354738235474,0.0082786880205758
11.195662260055542,0.0083696774713419
11.197083711624146,0.0084374058644327
11.241538763046265,0.0090450964217218
11.28845715522766,0.0089748598267357
11.302571296691896,0.0090287540497963
11.332035779953005,0.0090527243843923
11.34711217880249,0.0093508147736032
11.377160549163818,0.0093140933666052
11.395568370819092,0.0090794617731691
11.43393087387085,0.0090722910630037
11.4790461063385,0.0087852940459817
11.487063646316528,0.0088626242955312
11.52597689628601,0.0087845756759021
11.536419868469238,0.0089638095191
11.563327074050903,0.008957898706299
11.616543531417848,0.008793422928253
11.656489849090576,0.0087832927260524
11.659610986709597,0.0087042479859392
11.703218221664429,0.0089623007460002
11.744464635849,0.009094195169264
11.753212451934814,0.009082669685437
11.78870415687561,0.008697338044917
11.797160863876345,0.0091988367236762
11.840988874435425,0.0089976274040119
11.88120174407959,0.0082759786938291
11.88556170463562,0.0076130539225394
11.9280846118927,0.0070166523896459
11.93589973449707,0.0065473942024475
11.976462602615356,0.0053939131157748
12.02152681350708,0.0046314590876842
12.032337188720703,0.0039853362540304
12.061726093292236,0.0022781044114873
12.078789710998535,0.0023377729898062
12.10470986366272,0.0022337953112882
12.161250352859495,0.0021510389390459
12.200632333755491,0.0020433809680187
12.206762313842772,0.0019551374693116
12.244878768920898,0.001921034378363
12.29743218421936,0.001832311075426
12.306018590927124,0.0018718915787042
12.33803105354309,0.0018563852865147
12.348138809204102,0.0018803310739526
12.380680799484251,0.0038292883166403
12.401672601699827,0.0047194240033134
12.43268084526062,0.0058231447294307
12.473008394241331,0.0063026708262609
12.479124784469604,0.0068556090462682
12.515577793121338,0.0072293118156694
12.5315363407135,0.0075751015125343
12.570491075515749,0.0082213373771614
12.612760066986084,0.0084152518829178
12.620228052139282,0.0081452793808738
12.66307020187378,0.0081060513956619
12.6676025390625,0.008077298922837
12.70739221572876,0.0078427169377406
12.713419437408447,0.0079346297043807
12.760987043380736,0.0082505918302594
12.81288242340088,0.0083132663737561
12.81708025932312,0.0083071911288555
12.859228610992432,0.0083550152592433
12.898142099380491,0.0086761790533825
12.912369012832642,0.0080811626683043
12.950098514556885,0.00772223993503
13.001206874847412,0.0071639031312896
13.002541065216064,0.0063408191583197
13.038973569869995,0.0056278626495416
13.047910928726196,0.0050952571675867
13.081425428390505,0.0044122582017567
13.092702150344849,0.0029072341318772
13.133657693862917,0.001883983426437
13.18113374710083,0.0018723129522098
13.20090913772583,0.0017584641425764
13.22423005104065,0.0017639669548141
13.23437476158142,0.0034548413772853
13.278691053390505,0.0035548868350425
13.319769382476808,0.0036331044761955
13.33178734779358,0.0042400724943316
13.36678957939148,0.0053484575245832
13.374247789382936,0.0059819642100931
13.412425994873049,0.0067308675733823
13.460094451904297,0.0072226681005843
13.473223209381104,0.007421123480438
13.50118637084961,0.0076655555670457
13.508628368377686,0.007867615140695
13.54966688156128,0.008276659512616
13.560258865356444,0.0082566541257016
13.5911226272583,0.0081435566872406
13.63435125350952,0.0081370708326963
13.681287288665771,0.0080881879979384
13.690855026245115,0.0081101724061328
13.723525047302246,0.0082148169047483
13.734451055526732,0.0080326480979691
13.768438339233398,0.0079927686563444
13.78385853767395,0.0080398069317194
13.81306266784668,0.0080844251877206
13.828127145767212,0.007558040895892
13.865883827209473,0.0070608571789808
13.908483266830444,0.0063999046854113
13.913874626159668,0.0058230673181864
13.96199345588684,0.0048655091507136
13.99324655532837,0.0047237202047198
14.039054870605469,0.0037842019899058
14.051573753356934,0.0024704990742901
14.089460849761965,0.0025042521732671
14.102712392807009,0.0023701121135284
14.137002944946287,0.0022240372778055
14.1797833442688,0.0021989147439188
14.18236756324768,0.0030517373914979
14.226089477539062,0.0040950399140541
14.2331223487854,0.00520444173253
14.267477750778198,0.005829034642504
14.326330661773682,0.0071773167568997
14.35548734664917,0.0074701775607115
14.3623948097229,0.0082739767621348
14.404455423355104,0.0086253085139432
14.44986128807068,0.0081159230313553
14.453769445419312,0.0085991837945505
14.491443872451782,0.0081336354586914
14.50278639793396,0.008630944411005
14.536606073379517,0.008067792100808
14.585176229476929,0.0077807565218799
14.59288454055786,0.0070582471858859
14.624536275863647,0.0067495767480404
14.630313873291016,0.0062795629139267
14.67291808128357,0.0053345752675275
14.716959476470947,0.004713283195305
14.740058422088625,0.003627811966112
14.767202854156494,0.0021159925051286
14.772625923156738,0.0022023713741236
14.807338953018188,0.0020557523786309
14.825010061264038,0.0019821282669681
14.860594272613524,0.0019316815229647
14.91554594039917,0.0018747189839182
14.950338125228882,0.0025875581482895
14.961301803588867,0.0046894686855756
14.998322010040283,0.0055212961106257
15.0461106300354,0.0063786068424671
15.057559728622437,0.0071051517468985
15.086575984954834,0.0075513953877175
15.090790510177612,0.0081468495512267
15.131217002868652,0.0085841193508952
15.171993732452393,0.0088748038168145
15.187583684921265,0.0085985154066533
15.220728635787964,0.0082894688908868
15.229644536972046,0.0085831149898743
15.264548063278198,0.0083539900990277
15.314789772033691,0.0083089612736594
15.322177648544312,0.0084101615451352
15.357382535934448,0.0084555044265255
15.371132850646973,0.0080887662006054
15.404902935028076,0.0076007577823688
15.455185413360596,0.007029280921965
15.464333057403564,0.0064487057967438
15.501476764678957,0.0058933109037426
15.511409282684326,0.0048812914155061
15.553304433822632,0.0033993677606701
15.591558456420898,0.0018949279814314
15.641464471817017,0.0019566643242646
15.681271314620972,0.0019833218580151
15.690594673156738,0.0022384066649872
15.732203722000122,0.0022179230569715
15.783461332321169,0.0022005285137151
15.787823677062988,0.0020324872823788
15.835581064224243,0.0034295177712226
15.835590124130247,0.0046198746509315
15.86804485321045,0.0058372937034986
15.886552333831789,0.0064577953169705
15.921846628189089,0.0067675931369822
15.932735681533812,0.0073517660923688
15.976272106170654,0.0079239847126702
16.01676058769226,0.0082871030623011
16.030411958694458,0.008600291107224
16.061246395111084,0.0082236399042787
16.074167013168335,0.0080378723616035
16.112268924713135,0.0081366553403766
16.118212938308716,0.0074212829264751
16.15921425819397,0.0078496685436454
16.206254482269287,0.0074470756781007
16.212316274642944,0.0071022406916924
16.24822998046875,0.0066643208909606
16.25594186782837,0.0056306753473587
16.294209718704224,0.0050341006739802
16.340232133865356,0.0041164354748271
16.345104217529297,0.004065528987838
16.381367683410645,0.0036447951527185
16.39127016067505,0.0018486595658605
16.430272579193115,0.0018112480845061
16.475807189941406,0.001785713987474
16.480201482772827,0.0018358134253734
16.517736673355103,0.0018129893706204
16.52590274810791,0.0018068563430078
16.56272315979004,0.0017722527246532
16.61008930206299,0.0017883625741425
16.61818766593933,0.0017242619123169
16.65745234489441,0.0017132137761129
16.665061473846436,0.008389694629597717
16.701048851013184,0.0149538809453221
16.714173793792725,0.0150654993375337
16.759077310562134,0.0150929492321582
16.802559852600098,0.0151044509268295
16.81410503387451,0.0151022833669138
16.851303815841675,0.0150956593756015
16.89074444770813,0.0150928446989734
16.93888568878174,0.0044781472842376
16.977030754089355,0.0049850602868775
16.981640100479126,0.0057385591050136
17.026484489440918,0.0063020628676805
17.06494140625,0.0071647918627608
17.07280445098877,0.0079659134771236
17.11298894882202,0.0082253869276926
17.119553327560425,0.0086003107623741
17.155727863311768,0.0090242595481766
17.206037759780884,0.0091455628198333
17.21951127052307,0.0091726070333588
17.244693517684937,0.0092918222836168
17.25248646736145,0.008846581778533
17.289140939712524,0.0088438425456302
17.3325514793396,0.0091602206548257
17.351653337478638,0.0092888200586702
17.380935192108154,0.0093940888079611
17.391486644744873,0.0091124114624363
17.43016767501831,0.0090379171494363
17.473223209381104,0.0089813931443003
17.477601289749146,0.0087413203138139
17.51962900161743,0.0081473060197457
17.523808479309082,0.007502632007098
17.567926168441772,0.0065583404631324
17.608490467071533,0.0063858463727753
17.616450786590576,0.0047838505985247
17.649396896362305,0.0039677657635126
17.661068439483643,0.0021947596015921
17.694348096847534,0.002055779787749
17.748162746429443,0.0019008361464019
17.787850856781006,0.0019585064870891
17.794942617416382,0.0020670959417888
17.83596634864807,0.0021667250155806
17.881730556488037,0.0029083774191668
17.886836290359497,0.0048922453618145
17.93097734451294,0.0056293442456257
17.94309711456299,0.0065760496465392
17.969183444976807,0.0067422931982594
17.978753805160522,0.0076283223610668
18.024766445159912,0.008174323515128
18.07017159461975,0.0086944221777974
18.079787731170654,0.0090996645054219
18.12187767028809,0.0087135130716993
18.16241240501404,0.0087938906872034
18.16622042655945,0.0090487773273183
18.21342825889587,0.0092561878840616
18.258636236190796,0.0088635461276502
18.264219522476196,0.0090487337382141
18.29860901832581,0.0094653340555011
18.31043839454651,0.0091355763840652
18.349520206451416,0.0094657864694909
18.390336751937863,0.0091960308535424
18.403815984725952,0.0086775622542047
18.435726165771484,0.0080383280087976
18.449076890945435,0.007726448973929
18.480886459350582,0.0070662895748381
18.525557041168213,0.0059201167269449
18.535659074783325,0.005201225219746
18.569658994674683,0.0040980659415431
18.575435400009155,0.0025397758888573
18.617570638656616,0.0024537469420386
18.66200852394104,0.0023472742644966
18.666953802108765,0.0020901106164813
18.702197551727295,0.0019013696478958
18.71408438682556,0.0017314037692969
18.750805139541622,0.0030092330971191
18.797513961791992,0.0044861929205654
18.806538343429565,0.005359918010734
18.842401027679443,0.0059231901920897
18.84566640853882,0.0064214477868214
18.88744878768921,0.0068739869127038
18.934396982192993,0.0074565275426066
18.954745054244995,0.0077582090750749
18.97542381286621,0.0077006992710236
18.98415780067444,0.007855975674974
19.02006244659424,0.0078153750051155
19.06594181060791,0.0077849773503945
19.075518131256104,0.0082486383856332
19.11430072784424,0.0086172564430264
19.127260446548465,0.0086614697160648
19.162928581237793,0.0087890645255963
19.165757417678833,0.009060488962033
19.208292961120605,0.0092154277745389
19.258753061294556,0.0090118255856566
19.265264749526978,0.0091087129697505
19.29701566696167,0.0091318811030466
19.30684185028076,0.0090141574787021
19.34750199317932,0.0095025798681007
19.388641834259033,0.0093849132236404
19.398303031921387,0.0090689676438428
19.432419776916504,0.0095352552198425
19.444263458251953,0.0090994044302618
19.481635808944706,0.0091371552136084
19.522259950637817,0.0091068507855702
19.52698063850403,0.0093569952672376
19.564239978790283,0.0088107198657533
19.57355237007141,0.0090801381971167
19.61277437210083,0.0090633119259347
19.651691436767575,0.008915509577654
19.66500353813171,0.0092714183702127
19.699325799942017,0.0093672569516661
19.713918447494507,0.0089796865306352
19.748406648635864,0.0088946858751382
19.797621726989743,0.0089081056894902
19.83815336227417,0.0091247639371404
19.843994855880737,0.009244516940074
19.885679483413696,0.0087897953497648
19.93782353401184,0.0083777926269318
19.940914154052734,0.007541053762228
19.97669672966003,0.0069872717777283
19.98057985305786,0.0063685019128389
20.02444958686829,0.0057815426757657
20.071253061294556,0.0048470954970768
20.081345319747925,0.0036645145182167
20.11336874961853,0.0023525973780587
20.122230768203735,0.0022778075836186
20.156888246536255,0.0021988122423574
20.207212924957275,0.0024910546495394
20.20956039428711,0.0024692443247243
20.24896764755249,0.0024223384629263
20.254279851913452,0.0037941057644522
20.29004597663879,0.0056893613768806
20.309919834136963,0.006426456228016
20.349157571792603,0.0070415827376233
20.390716314315796,0.0074994620066591
20.392366647720337,0.0080738450951761
20.4384765625,0.0083956304387703
20.44615888595581,0.0087595885865082
20.48078966140747,0.0094183079283719
20.4945387840271,0.0082435408586267
20.53413128852844,0.008577362266404
20.58013343811035,0.0083976033691032
20.59005546569824,0.0082142269958934
20.624371767044067,0.0083806438494558
20.629467010498047,0.0083197774144687
20.669702291488647,0.0082317347477633
20.713056564331055,0.0085170416338556
20.721189975738525,0.0082654256487311
20.753926992416385,0.0076584589149713
20.772696256637573,0.007154048912977
20.81941556930542,0.0063694220094746
20.81981873512268,0.0057619199782473
20.86417508125305,0.0051686992782434
20.86852192878723,0.0042946844996728
20.908342361450195,0.0030726223646644
20.962130546569824,0.0019135402394098
20.966755390167236,0.0019005100439858
21.003555059432983,0.0018666465703323
21.006591796875,0.0019891940933207
21.04910445213318,0.0024274969782583
21.095332622528076,0.004369228905875
21.103713274002075,0.0059383059338036
21.14138340950012,0.0071213193103538
21.146000862121586,0.0076584957021374
21.18943166732788,0.0083524858533673
21.23865795135498,0.0086770102990946
21.251375675201416,0.0090325102358666
21.28112816810608,0.0095470311033314
21.293070554733276,0.009429465003373
21.324785947799683,0.0094697084687516
21.340052127838135,0.0091021410393099
21.37109875679016,0.0091699836246562
21.413618087768555,0.0089291315840566
21.4183349609375,0.008907371920636
21.45810556411743,0.0090759050640564
21.470543146133423,0.0091206503637129
21.51099538803101,0.0086983421728229
21.552198886871334,0.0088951039671521
21.560651063919067,0.008819125606695
21.596524000167847,0.0090125383462123
21.60989546775818,0.0088980870534691
21.64486050605774,0.0090490886719559
21.649378776550293,0.0086955756821241
21.694627285003666,0.0091745602789499
21.737427711486816,0.0093200503384056
21.74944305419922,0.0092874186882383
21.78546166419983,0.0091668677358655
21.797306776046753,0.0089509201858457
21.83745074272156,0.008421697457471
21.841609954833984,0.0077976839365327
21.875486612319943,0.0072587995064853
21.926357746124268,0.006228559436395
21.93270707130432,0.0054272073597887
21.9653103351593,0.0038906425779083
21.977469205856323,0.0038545290860129
22.02310585975647,0.0021830986158631
22.06000256538391,0.0022636634267773
22.07125687599182,0.0023339133652658
22.10907244682312,0.0023692323170767
22.11548686027527,0.0024893349640464
22.15110969543457,0.0028388462736561
22.1940598487854,0.0038107914400795
22.208306074142456,0.005321514525836
22.24253845214844,0.0061397315908347
22.25228905677795,0.0067996471210574
22.29604744911194,0.0073761749469644
22.338768482208252,0.008291004958227
22.37623691558838,0.008585871777931
22.39480209350586,0.0089364360840545
22.426082849502563,0.0083813833949529
22.473628282546997,0.0080801934184261
22.508599519729614,0.0083280765138956
22.523563861846924,0.0086151703052086
22.57089328765869,0.0087336655351034
22.61868953704834,0.0088961491112222
22.65189504623413,0.0088619884933731
22.65645933151245,0.0088841193599499
22.70734167098999,0.0089247005568261
22.711718559265137,0.008483174361721
22.753319263458252,0.0085389777207423
22.80416965484619,0.0073419107572306
22.83712100982666,0.0071894593205202
22.85047197341919,0.0065443469768678
22.880812406539917,0.0055322559794484
22.92514157295227,0.0047397368376822
22.933830499649048,0.0038684206931205
22.978148460388184,0.002398353628659
22.980545043945312,0.0019873236706284
23.029642581939697,0.0018810201746649
23.0718834400177,0.0018706871314034
23.08346366882324,0.0018593877985996
23.1258282661438,0.001986359432187
23.173291206359863,0.0020571771685296
23.181957721710205,0.0021109002413353
23.216705560684204,0.0045677080094631
23.225735664367676,0.0062226311500393
23.259594440460205,0.0068913673762309
23.266338109970093,0.0074138308572626
23.307908296585083,0.0079357303402768
23.36216831207275,0.0088261636440359
23.399524450302124,0.0090851818622614
23.41111540794373,0.0088532415834289
23.455785989761353,0.0088531333857315
23.500174283981323,0.0085335055884542
23.514045476913452,0.0085548462113091
23.544951677322388,0.0084497515136148
23.558072328567505,0.0086103028660783
23.592950582504272,0.0086285220141258
23.596789121627808,0.0086035990917561
23.64061808586121,0.0086979599700586
23.685296058654785,0.0087242797624074
23.697872400283813,0.0087746343296823
23.731861114501953,0.0086865185008191
23.737689971923828,0.0085571446008818
23.772408723831177,0.0085342120801827
23.822465658187863,0.008641116278964
23.83412170410156,0.0083518854285613
23.86337113380432,0.0085992034522316
23.869470357894897,0.0082651802273005
23.907601594924927,0.008371212282913
23.95331358909607,0.008175205789105
23.95876145362854,0.0078379808604241
23.997703552246097,0.0077493942261764
24.00343537330627,0.0077618323928324
24.055328369140625,0.0074751466731901
24.09434986114502,0.0068497627942618
24.103110551834103,0.0063864463555792
24.15209126472473,0.0058969430154117
24.18888139724731,0.0051930829947225
24.19061255455017,0.0042996017261158
24.235764503479004,0.0042574456195844
24.278834104537964,0.0030610474203019
24.28678607940674,0.0031405306159772
24.316072463989254,0.0030873129178551
24.32395076751709,0.0024206863474142
24.36505365371704,0.0023972491599711
24.419854879379272,0.0023849717475856
24.4585177898407,0.0022986645596123
24.472633838653564,0.0022554091803815
24.509177207946777,0.002225278363066
24.552995681762695,0.0021726202408559
24.56945514678955,0.0020738179572485
24.60649585723877,0.00208124936775
24.61542010307312,0.0019906665218903
24.651413440704346,0.0019780589729362
24.657726526260376,0.0019885424790729
24.693474769592285,0.0019551374693116
24.70763778686523,0.0020377755042994
24.749976873397827,0.0020378861057
24.79548168182373,0.0021431659935949
24.803249835968018,0.0022968498951369
24.837597370147705,0.0024450974030917
24.842520475387573,0.0024417536233952
24.88533592224121,0.0025112176176527
24.93847155570984,0.0024289356876279
24.98300266265869,0.0022910529853587
25.02064824104309,0.0022230236333074
25.02824831008911,0.0021533428762525
25.074397802352905,0.0019874654309429
25.11874628067017,0.0018728244925815
25.15969204902649,0.0019173644408466
25.174335479736328,0.0020081672855214
25.21581029891968,0.002080653665175
25.22285747528076,0.0021026894524358
25.26198983192444,0.0021720495976434
25.27025365829468,0.0023089613917851
25.312360048294067,0.0023748384011023
25.35393857955933,0.0047459621436642
25.36076188087463,0.0064643796242343
25.401160955429077,0.0073074781965176
25.40390944480896,0.0081133399213768
25.448271989822388,0.0082234617555509
25.491037607192993,0.008822792217819
25.503920316696167,0.0093185085435064
25.535484313964844,0.0096765924416842
25.550490379333496,0.0095733649943356
25.587509870529175,0.0090720364141443
25.63507866859436,0.0086734639617414
25.656558752059937,0.0087913978216439
25.67664051055908,0.0089886489061486
25.700088262557983,0.0089496107139633
25.724706649780273,0.0091553845018753
25.78693413734436,0.0091028281580358
25.79363775253296,0.0091904349364225
25.811861038208008,0.0093389121432426
25.83887505531311,0.0090043319357115
25.85939621925354,0.0087832991412678
25.897778511047363,0.008637842231965
25.95613384246826,0.0087952681888996
25.967053413391113,0.0084425999100583
25.993884325027462,0.0085709548660148
26.011101961135864,0.0086932101853554
26.04140257835388,0.008699670034949
26.06291127204895,0.0088961871141475
26.08689832687378,0.0086895472560922
26.101276874542236,0.0088021652667137
26.123470306396484,0.00877258561671
26.170779943466187,0.0090417318476109
26.181999444961548,0.0089822024175697
26.215014457702637,0.0090759733560617
26.218836069107056,0.0088312438916568
26.265696048736572,0.0087294967608118
26.310978174209595,0.0080682949445187
26.324533462524418,0.0077173569103883
26.359190940856937,0.0066848939352565
26.364428281784058,0.0059237133786631
26.39666223526001,0.0052508114666181
26.4447979927063,0.0040476384177412
26.48495125770569,0.0027195306747249
26.494516849517822,0.0023586730516945
26.530893802642822,0.0024916426905213
26.57829236984253,0.0024180312936158
26.58652138710022,0.0023486181697167
26.619932413101196,0.0022536096913759
26.625403881073,0.0021707261659685
26.665859699249268,0.0021878940907003
26.70486354827881,0.0021303765260733
26.717077255249023,0.0020727580356741
26.750195264816284,0.0020546008654919
26.76339840888977,0.0017626567973885
26.79906535148621,0.0018091937028868
26.853241205215458,0.0018921009949529
26.864230394363403,0.002287459406199
26.893561840057373,0.002364089673135
26.902845859527588,0.0023960030845219
26.95080804824829,0.0024793554477212
26.9581835269928,0.0026260119678016
26.99595308303833,0.0026280924872783
27.003305435180664,0.0026120491558536
27.042394161224365,0.0026362912815054
27.08998703956604,0.0022525343109099
27.09226012229919,0.0021502267368122
27.13451647758484,0.0021338121505949
27.138049125671387,0.0019897039034422
27.177217960357662,0.0018850897086088
27.216973304748535,0.001820464112364
27.22949481010437,0.0017806581619611
27.26115918159485,0.0017815755949179
27.26896834373474,0.001757855217242
27.311004877090458,0.0017540366135801
27.36107397079468,0.00215760389748
27.399930477142338,0.0021446378040259
27.40688180923462,0.002231852167034
27.44880747795105,0.0023163925006997
27.49525499343872,0.0023331406741785
27.50938129425049,0.0024482294873259
27.546616554260257,0.0024447978025774
27.553929328918457,0.002176481113656
27.59365820884705,0.0021684666830909
27.596517324447632,0.0020835763891047
27.64066243171692,0.0020334296474265
27.64628863334656,0.0020666870180315
27.686620473861694,0.0019507808205537
27.735709190368652,0.0019016659729421
27.77172017097473,0.0019105048600737
27.78600525856018,0.0018968598077884
27.815770149230957,0.0018936786762926
27.82442593574524,0.0018916244552161
27.87035346031189,0.0019369540583989
27.874394178390503,0.0019429664363465
27.913071393966675,0.0020470727162283
27.922605752944943,0.0020404006679162
27.956315517425537,0.0021095117369658
28.00700211524963,0.002161230892533
28.01139187812805,0.0026211581659018
28.05916452407837,0.0067882599269418
28.10246419906616,0.0073594953895476
28.11324644088745,0.0079190695500433
28.14836287498474,0.0085491996932354
28.19662094116211,0.008995153416175
28.205646514892575,0.0092402005648203
28.237162351608276,0.0098118355150119
28.24346423149109,0.0093326592985937
28.283719062805176,0.0091846699700218
28.294763803482056,0.0086598236814751
28.33607792854309,0.0089302547714592
28.38166642189026,0.0090623979788248
28.384305953979492,0.0089538343323005
28.42278289794922,0.0094255441929419
28.43633246421814,0.0093085321045977
28.470186948776245,0.0091953323161076
28.52086877822876,0.0089474005455939
28.557154417037964,0.009493087727216
28.567800760269165,0.0095590164776668
28.607277870178223,0.009218612822217
28.65618586540222,0.0093054686634358
28.693392276763916,0.0090706512476012
28.69616198539734,0.0091094243349635
28.742620944976807,0.0092454677348814
28.78951072692871,0.0089601817482768
28.79414653778076,0.0086154253773741
28.830966472625732,0.0084603610234484
28.836896419525143,0.0086714043421718
28.881675481796265,0.0086234922262309
28.930449962615967,0.008514090491939
28.96956992149353,0.0080061096811886
28.973591804504395,0.008044487226524
29.01271367073059,0.0077029014012516
29.020108222961422,0.0079263807268031
29.066436767578125,0.0073273451363244
29.11395287513733,0.0067176193635347
29.119417428970337,0.0059797502326799
29.16165256500244,0.0053709449099723
29.174582481384277,0.0052319338034358
29.20163512229919,0.004213397100019
29.216735124588013,0.004004785806219
29.2638578414917,0.0022906840418664
29.304929971694943,0.0022110530182641
29.308565855026245,0.0021538923152263
29.34847092628479,0.0020610902622205
29.3565456867218,0.002165346286209
29.397404193878177,0.0020786757926742
29.439782857894897,0.0021215241039527
29.449899196624756,0.0021711933516138
29.488879203796387,0.0021330726374994
29.495938301086422,0.0021330198053247
29.528595209121704,0.0022300336691648
29.543071269989017,0.0022435360184023
29.57677102088928,0.0022022946190615
29.61768627166748,0.0022683879450283
29.625685453414917,0.0023788684960204
29.663965702056885,0.0023870499077727
29.67665386199951,0.0023786789975936
29.718771934509277,0.0023003798165872
29.761090517044067,0.002254209680655
29.76417899131775,0.0021783960509807
29.804047346115112,0.0021578650358925
29.81253552436829,0.0023946151812496
29.84814214706421,0.0023422999219457
29.890839338302612,0.0023532200180785
29.90658593177795,0.0023569284973103
29.945546865463257,0.0025672704629686
29.980756759643555,0.0026097183560237
30.031235456466675,0.002708547995662
30.08197855949402,0.0024495180050302
30.122066259384155,0.0026726532951615
30.13568902015686,0.002645125104373
30.175901174545288,0.0026531226060517
30.225703477859497,0.002517872888767
30.267186641693115,0.0029265130071887
30.27112865447998,0.002939097243119
30.318896293640137,0.002879913428951
30.35635447502136,0.0026985856973313
30.374252796173096,0.0027373941884333
30.399322986602783,0.0026965595671503
30.405352354049683,0.0026453594171607
30.445589780807495,0.0026269559127905
30.48934507369995,0.0021693240053542
30.501028776168823,0.0021903907913368
30.53442931175232,0.0020413669824666
30.5379421710968,0.002103975337302
30.582497119903564,0.0021537353469651
30.595268726348877,0.002015533236991
30.637876272201535,0.0044720153598938
30.68176007270813,0.0075133640066842
30.724541425704956,0.007975852590459
30.73114776611328,0.008531570690165
30.766517877578735,0.0089598798918045
30.81805181503296,0.0099385008189492
30.863405466079712,0.0093426220357908
30.90360426902771,0.0091592610107845
30.959015607833862,0.0090650525226591
30.99811434745789,0.0090427101954553
31.00416398048401,0.0091916058865416
31.050090074539185,0.0091410332889997
31.05526113510132,0.0092812343599363
31.10008144378662,0.0087826511808486
31.107449531555176,0.0088897432983348
31.145354747772217,0.0089728065924022
31.198264598846436,0.0086981867025383
31.207534551620483,0.0088624780650739
31.24003553390503,0.0086401315865275
31.24459147453308,0.0088792660899875
31.28167486190796,0.0089865612017215
31.328542232513428,0.0090580943495267
31.338001012802124,0.0091538703717827
31.376282453536987,0.0090082421719013
31.390680074691772,0.0090259827049885
31.42288875579834,0.0089608797524235
31.467118740081787,0.0086641690560965
31.470056533813477,0.0088325517737178
31.51103472709656,0.0086156739019642
31.520326375961304,0.0086051642094238
31.55360412597656,0.0080487797730592
31.569488525390625,0.0081265870151772
31.6056649684906,0.0074305704412816
31.65405225753784,0.0081231125245474
31.6909704208374,0.0075450054135686
31.69622373580933,0.0074860385080657
31.741787672042847,0.0070547656930525
31.78785538673401,0.0070547097835117
31.800378799438477,0.0063480751542512
31.83501386642456,0.0063475603142251
31.8476665019989,0.0052671615974978
31.882190465927124,0.0049875011632541
31.922546863555908,0.0040012949620062
31.931208848953247,0.003617702158215
31.971400260925293,0.0021636541922424
31.971410751342773,0.0021937837990323
32.01258587837219,0.0021560102682298
32.027597188949585,0.0021258489032303
32.06021857261658,0.0022163473760822
32.10755658149719,0.0022211218030413
32.11788845062256,0.0021984021883201
32.149014472961426,0.0020736549276537
32.16128325462341,0.0020626206397144
32.20520329475403,0.0020367798214288
32.2444634437561,0.0019981533902813
32.25800275802612,0.0019534363591217
32.29330539703369,0.001969723535674
32.30500102043152,0.0018135797842732
32.34173512458801,0.0017852406120747
32.349698305130005,0.0018926369587359
32.386991024017334,0.0017575346454846
32.43214154243469,0.0018814994002196
32.439005613327026,0.0018843721941823
32.476940393447876,0.0019260727815432
32.48673677444458,0.0019810761742802
32.52571153640747,0.0020334019370411
32.56841039657593,0.0020091771478845
32.577197790145874,0.0020022099867057
32.627182960510254,0.0019113599689786
32.66634511947632,0.0020270462828429
32.675922870635986,0.0019279734011113
32.720452070236206,0.0018678837894337
32.760374307632446,0.0018604481333951
32.79838013648987,0.0018078851536529
32.808422327041626,0.0020448419338435
32.843829870224,0.0020378031552123
32.89107155799866,0.001964911780188
32.899940490722656,0.0020109992260497
32.93229818344116,0.0020104667893876
32.94258904457092,0.001964510268574
32.984822273254395,0.0020831436517207
33.02808904647827,0.002135000117144
33.036957025527954,0.0019646249945512
33.07542586326599,0.0020489985965028
33.0813934803009,0.0043338400958839
33.12902641296387,0.0060396066065401
33.13714146614075,0.0068157870593675
33.16858530044556,0.0077369579119563
33.183759689331055,0.0082040409573358
33.22503209114075,0.0087094381658162
33.27337694168091,0.0090499167965521
33.283663749694824,0.0096718222342024
33.319133281707764,0.0097649893348446
33.32330632209778,0.0090408219514262
33.360371589660645,0.0089094212616207
33.37414526939392,0.0092508232713322
33.418965339660645,0.009220146876654
33.460182428359985,0.0090933648805929
33.46477127075195,0.0093862219977933
33.50704050064087,0.0096683260830213
33.51746845245361,0.0095486422178999
33.550392866134644,0.0096649627580801
33.566275119781494,0.0097757795695886
33.605905532836914,0.0096358797697899
33.662734508514404,0.0094582414252705
33.6987841129303,0.0094007263657577
33.712090253829956,0.0090545292470815
33.74460244178772,0.0088372266661765
33.751018047332764,0.008810617541197
33.79454326629639,0.0086064802595919
33.83906674385071,0.0086787894168223
33.84028911590576,0.008335055973597
33.88625645637512,0.008411963608984
33.90089225769043,0.0085638650009163
33.92389154434204,0.0084331040030391
33.98892831802368,0.0084779852353489
34.02071738243103,0.0084297491661268
34.0284628868103,0.0083787812502807
34.06700897216797,0.0080188101757796
34.07539248466492,0.0080839581983901
34.113208055496216,0.0079193755030091
34.163774490356445,0.0069151361303062
34.20556330680847,0.0056977437856021
34.21387553215027,0.0055042370351142
34.25662660598755,0.0044197481270126
34.300108671188354,0.0036703989229338
34.315539598464966,0.0033074564075609
34.34663677215576,0.0020479258294957
34.35475945472717,0.0019996192216434
34.39741587638855,0.001968349948662
34.39960718154907,0.0019820145541422
34.43634796142578,0.0019327896569589
34.48526453971863,0.0019587941685324
34.49890661239624,0.0019951902557591
34.52936935424805,0.0021183345597842
34.531816482543945,0.0021717901647987
34.57279372215271,0.0021980176931843
34.619510650634766,0.0022404698753724
34.62243890762329,0.0022038547798927
34.67139506340027,0.0021654503718815
34.71216440200806,0.0020664416249351
34.726919174194336,0.0019733817601339
34.766796588897705,0.0018333563361034
34.817221879959106,0.0017435973610023
34.85341787338257,0.0017740640484117
34.859227657318115,0.0017913847352745
34.901745080947876,0.0018397685698187
34.95307636260986,0.0018187609638214
34.95359826087952,0.0018351073491642
35.007948875427246,0.0020287134447785
35.040942430496216,0.0020969200836461
35.05402851104736,0.0021771800021607
35.087782859802246,0.0021028502310456
35.09403610229492,0.0021378485435207
35.139721155166626,0.0021501481203141
35.18652367591858,0.0021552260838699
35.19183707237244,0.0021236743382105
35.233351707458496,0.0020632761682991
35.23971462249756,0.0019743523366489
35.27634620666504,0.0020056404050281
35.331804275512695,0.0018690297490178
35.37725496292114,0.0019084982746553
35.37862205505371,0.0019231450836424
35.419970989227295,0.0019110061772182
35.42247724533081,0.0019441261048591
35.46349239349365,0.0019750656915649
35.515594720840454,0.0020590935980824
35.55289387702942,0.0021297945643865
35.56604528427124,0.0020911078517239
35.595200300216675,0.0021231436186375
35.640270471572876,0.0021193185144262
35.65172028541565,0.0021773094013395
35.69743824005127,0.0020137992040509
35.73560905456543,0.0020059213267194
35.785316467285156,0.0019115073628859
35.792357206344604,0.0019022288633568
35.82541036605835,0.001763998897717
35.837039947509766,0.00188586670784
35.87092161178589,0.0017816072221109
35.92637348175049,0.0019019918771706
35.97258400917053,0.0019623292006095
36.00889468193054,0.0019916003830854
36.0230233669281,0.0020532566172836
36.056846618652344,0.0020127076759632
36.103604793548584,0.0020178522709747
36.11504006385803,0.0020370287877729
36.151296615600586,0.0021006518582613
36.15477705001831,0.0020775912283759
36.19658279418945,0.0020260175158112
36.240333557128906,0.0020173216430544
36.25091218948364,0.0019239360011303
36.27978181838989,0.0019647110346377
36.29026007652283,0.0019067260044705
36.32988142967224,0.0018737569419759
36.37358641624451,0.0018845814974423
36.38111615180969,0.0018438680309496
36.41626930236816,0.0018305266061525
36.420631408691406,0.001915953316872
36.45999097824097,0.0019456036797346
36.50548505783081,0.0019357318767281
36.51544809341431,0.0019816449423934
36.548354387283325,0.0019893357203486
36.559849977493286,0.0019766626723729
36.60425853729248,0.0020671504588445
36.64634418487549,0.0020161202325999
36.64819812774658,0.0020225937994283
36.68443727493286,0.0020285190131549
36.689229011535645,0.0019621856243005
36.73909902572632,0.0019711533376477
36.78403425216675,0.002040759638162
36.79125738143921,0.0020145545308934
36.82810854911804,0.0020189410176706
36.8392653465271,0.0019645389506964
36.87814903259277,0.0019452850820432
36.89130926132202,0.0020398482826475
36.92909622192383,0.0020761261678448
36.970356941223145,0.002021757867146
36.97524929046631,0.0021109002413353
37.01579546928406,0.0020378031552123
37.02666354179382,0.0020274076176007
37.061397552490234,0.0021012955225079
37.10907340049744,0.0020757733136573
37.116188287734985,0.0020890589612965
37.1519455909729,0.0038215553037834
37.16241097450256,0.0056510330171134
37.202550172805786,0.0075325159078059
37.20663738250733,0.0081986545450254
37.25096845626831,0.0087244735186068
37.29886054992676,0.0092089870693343
37.30013418197632,0.0097570981718579
37.33946394920349,0.0101155595199174
37.34489130973816,0.0107908918013932
37.3872652053833,0.0101704895378059
37.42529249191284,0.0095906124551115
37.43705940246582,0.009326063923955
37.47064447402954,0.0093328645742681
37.48293948173523,0.0094392778125282
37.51262879371643,0.0095447644599149
37.55742383003235,0.0094901372983595
37.56530022621155,0.0095780665793158
37.61230945587158,0.009781726118374
37.65467286109924,0.0094989621081751
37.70938587188721,0.0098603279054282
37.742825984954834,0.0097159805283058
37.75290608406067,0.009863830265169
37.79116678237915,0.0098507057255554
37.81007647514343,0.0099147681328175
37.85053610801697,0.0101108626637516
37.889519453048706,0.0098369336076413
37.89880418777466,0.0092041887834936
37.93480443954468,0.0092426577317767
37.941646575927734,0.0088211826737806
37.97669625282288,0.0088603606319492
37.98786187171936,0.0087363554676025
38.03214478492737,0.0087258555213564
38.081445932388306,0.0085328782804203
38.116942167282104,0.0086431896352121
38.12346887588501,0.0088367675775419
38.17058086395264,0.0089087634998395
38.20449733734131,0.0090390455203112
38.24788546562195,0.0086354674454257
38.25526928901672,0.0086553068649019
38.299588680267334,0.0088269233141739
38.30445647239685,0.0090014591764588
38.33556914329529,0.0085780060275831
38.341466426849365,0.0089783624267551
38.381696462631226,0.0090196253712472
38.403048515319824,0.0089099019029834
38.440446853637695,0.0084533850369737
38.484355449676514,0.0084702521299219
38.4920654296875,0.0084349145257445
38.53512454032898,0.0084424130332588
38.53680992126465,0.0079580509598234
38.577600955963135,0.0072997864490928
38.58270335197449,0.0064092304578023
38.62384867668152,0.0061164318644866
38.66960287094116,0.0056792107517517
38.67471408843994,0.0047890538797371
38.713510274887085,0.0038791989534829
38.72230386734009,0.0026374238330017
38.760825872421265,0.0026240156939828
38.805893659591675,0.0025847039145957
38.82086634635925,0.0026528040185213
38.85000729560852,0.00264019973223
38.86092233657837,0.0026270417091526
38.89390540122986,0.0026356499989229
38.93389058113098,0.0026101069672024
38.94336748123169,0.0025821520462711
38.97985291481018,0.0026105171051308
38.984447717666626,0.0026362485341865
39.03300476074219,0.0025444306228416
39.06909799575806,0.0024741684107676
39.08223366737366,0.0023988939280273
39.115413188934326,0.0022979780983377
39.11934447288513,0.0023702785247706
39.16937518119812,0.0022631406378848
39.21146845817566,0.0021967099063256
39.21726107597351,0.0021885120962464
39.26543140411377,0.0021952473402154
39.302088260650635,0.0023332855732485
39.31373357772827,0.0023196497887316
39.356329917907715,0.0024208027304823
39.41418528556824,0.0025015281404306
39.45234680175781,0.0024593207535676
39.458149671554565,0.0023642565082745
39.49625825881958,0.0023050535250733
39.51067566871643,0.0022549094663725
39.54817032814026,0.0021577344706367
39.59168243408203,0.0020999275001555
39.59889626502991,0.0021608919352251
39.63175010681152,0.0019075828073173
39.63953399658203,0.0019029396448346
39.68860840797424,0.001892607186952
39.73083996772766,0.0018761611218799
39.77208399772644,0.0019446477300699
39.780420541763306,0.0019041828740039
39.81610894203186,0.0022504571232893
39.82575154304504,0.0022472750594872
39.865166902542114,0.0022851180834474
39.913822650909424,0.0023926613442375
39.949548959732056,0.002417961384409
39.96647524833679,0.0024753979018038
40.00643038749695,0.0024286804949304
40.046815156936646,0.0025193718158541
40.05460858345032,0.0024735989950019
40.090527057647705,0.0023860818992444
40.09724736213684,0.0023372667774527
40.1392707824707,0.0023617527437269
40.15447640419006,0.0023417225029989
40.199432134628296,0.0022898967637431
40.24341464042664,0.0022816880292625
40.247183322906494,0.0023258357588992
40.281896352767944,0.0020169305647312
40.28886699676514,0.0019645676324001
40.330458641052246,0.001881139992499
40.36922359466553,0.0019434883728082
40.385582447052,0.0018529826397669
40.41820454597473,0.0017735875636143
40.425334215164185,0.0025456261787364
40.45682978630066,0.0025036220821312
40.506409883499146,0.0025633167586775
40.513203144073486,0.0025405966275728
40.54806137084961,0.0025757285007733
40.55444526672363,0.0025645694245122
40.59688782691955,0.0025749846080499
40.64895057678223,0.0023534115664818
40.68624687194824,0.0019183633589664
40.70406484603882,0.0017738417047675
40.73632597923279,0.0017303620491895
40.77860164642334,0.0017211218925706
40.78805208206177,0.0016905676883075
40.82714319229126,0.00164803681262
40.831605672836304,0.0017028220692173
40.87354373931885,0.001923467348544
40.8814377784729,0.001979852769542
40.922173738479614,0.0020109151664754
40.968971252441406,0.0020421121126941
40.97101092338562,0.0021077748202323
41.01454496383667,0.0021285772212539
41.0194149017334,0.0027037590030472
41.06033372879028,0.0053761564226557
41.06507587432861,0.006665538297652
41.10605192184448,0.0079472459088938
41.15156841278076,0.0090823594919616
41.15580725669861,0.0094417726880503
41.192665815353394,0.0098408336564869
41.203431606292725,0.0103735991138942
41.247074604034424,0.0107892155074084
41.29318165779114,0.0105651037689124
41.2984983921051,0.0099980003000674
41.33831739425659,0.0092907428073618
41.35305166244507,0.0091657612483709
41.38541293144226,0.0091609157188175
41.39789867401123,0.0093999411359433
41.4340443611145,0.0093344522894707
41.47858381271362,0.0095714695850338
41.4853515625,0.0092141925846314
41.52494215965271,0.0090397623678602
41.53041887283325,0.0094156452587808
41.569435358047485,0.0095000653744111
41.61239290237427,0.0094133589506307
41.62720251083374,0.0091137284560155
41.657700538635254,0.0090306198590923
41.665000677108765,0.0090280862584689
41.698246002197266,0.0090051516618616
41.74012541770935,0.0090907557936875
41.756133794784546,0.0089275917042931
41.791558504104614,0.0088779016214765
41.79869031906128,0.0091015714961863
41.83546805381775,0.0088309695308437
41.876495599746704,0.0087259911266554
41.889097690582275,0.0087035682444794
41.923940896987915,0.0087406176692724
41.92714619636536,0.0085113236945966
41.976932764053345,0.0083431912971978
42.022414445877075,0.0074907864823537
42.03355360031128,0.0067732690641005
42.07153630256653,0.0055025783953052
42.114176988601685,0.004708618483759
42.11690545082092,0.0036934156594279
42.167011976242065,0.0022285171207264
42.20546197891235,0.0020972693800074
42.2140371799469,0.0020808703040245
42.25153422355652,0.0020038978115418
42.260637044906616,0.0019686361916576
42.29850625991821,0.0019434303867901
42.34483885765076,0.0018183271803863
42.35056829452515,0.0017493724270542
42.38415956497192,0.0017827770338131
42.39711785316467,0.0017841987441061
42.43384075164795,0.0018251318578314
42.48448729515076,0.0018937084312311
42.51652312278747,0.0020069884705379
42.534241914749146,0.0021379012563668
42.56553673744202,0.0021829695598497
42.61008024215698,0.002228567688968
42.618135929107666,0.0022450675196032
42.65386748313904,0.0023734618619337
42.66699767112732,0.002373533081814
42.70854353904724,0.0023377970924223
42.748472929000854,0.0022314986862881
42.75665974617005,0.0022120212027597
42.80102252960205,0.0020716975718229
42.80207896232605,0.0020585188565521
42.84019732475281,0.0019537824676218
42.850311279296875,0.0017080753090084
42.89638566970825,0.0016702812814062
42.93461585044861,0.001678223828363
42.94456171989441,0.001700835497976
42.98620295524597,0.0017342002914341
43.00035047531128,0.0017392291794811
43.02687692642212,0.0017548074210792
43.03488278388977,0.00184136048914
43.080464363098145,0.0019341010997944
43.1290864944458,0.0023094250117067
43.169676065444946,0.0022840822072621
43.191384077072144,0.0022947391577946
43.2193591594696,0.0022594527906535
43.234440326690674,0.0022103138552989
43.266677141189575,0.0021028770262854
43.311328411102295,0.0021911366752034
43.32005858421326,0.0021078550171245
43.353368282318115,0.0017416896516104
43.36445450782776,0.0016948285674341
43.40086197853088,0.0015972687568733
43.454349517822266,0.0016611818128716
43.45946216583252,0.0017174184716907
43.49334335327149,0.0022288457937886
43.501919984817505,0.0022530345517189
43.54236030578613,0.002293068827208
43.58530783653259,0.002308741749854
43.59012246131897,0.0023912950647947
43.62354016304016,0.0024290980690221
43.63191366195679,0.0025397758888573
43.67186641693115,0.0025786363724438
43.71713304519653,0.0021736833125533
43.726261377334595,0.0021128746166529
43.766714334487915,0.0020445388003723
43.77627944946289,0.0019639078472396
43.80816984176636,0.0020363371394368
43.8607964515686,0.0018504265485947
43.90548491477966,0.0018041724434746
43.90649628639221,0.0018310190472418
43.94617176055908,0.0019886558186272
43.98533535003662,0.0019380010292285
44.04774451255798,0.0020938545273123
44.05273985862732,0.0022175673559234
44.08334708213806,0.002227935503453
44.094873666763306,0.0022818361956336
44.13769197463989,0.0023286685280303
44.188987255096436,0.0023456173224323
44.19740653038025,0.0023484502236218
44.23498487472534,0.0023282329417322
44.25475835800171,0.0021737610778751
44.26963305473328,0.0020026039397377
44.29030799865723,0.001976235036197
44.325307846069336,0.0019299013457829
44.37394714355469,0.0018324648276248
44.381216526031494,0.0017363109532573
44.41992092132568,0.0016241354829972
44.42739725112915,0.0016451965772174
44.46448111534119,0.00172850493012
44.48460507392883,0.0017292545339752
44.51191735267639,0.001791919378425
44.55660629272461,0.0017336478482695
44.57097697257995,0.0018203403007468
44.6052188873291,0.001951502791852
44.62015986442566,0.0020942850515334
44.66038537025452,0.0023116685930286
44.700536251068115,0.002378110411713
44.751057386398315,0.0024229431811763
44.78891324996948,0.0024270791287022
44.79652714729309,0.0023191882128065
44.83891272544861,0.002185729695225
44.880064725875854,0.0020356175758754
44.890918254852295,0.0019908929527074
44.92377614974976,0.0020239584129983
44.9364697933197,0.0019443579555626
44.97192096710205,0.0019441550877091
44.98163056373596,0.0019178052041546
45.02722096443176,0.0019368376933717
45.067962884902954,0.0019580461088647
45.07466125488281,0.0020817907676259
45.12019610404968,0.0021557489051385
45.12488555908203,0.0021563761233377
45.1642153263092,0.002320159844762
45.17554593086243,0.0027107730347933
45.21300196647644,0.0046706746884508
45.25233507156372,0.0067068658535455
45.297064781188965,0.0078072526296163
45.306159257888794,0.0085722958875246
45.34463381767273,0.0088866242591176
45.34750843048096,0.0092456261911766
45.38679552078247,0.0094145261144782
45.39491629600525,0.0101542992128639
45.42983055114746,0.0099644447918938
45.442413568496704,0.0092006619176613
45.48489928245544,0.0087480280481733
45.524691581726074,0.0088124783833609
45.53840684890747,0.0089645449539155
45.57981586456299,0.0094092338121736
45.622453689575195,0.009281902150197
45.66288328170776,0.0093079630830858
45.66976475715637,0.009630363907716
45.70386219024658,0.0097026734201587
45.714163064956665,0.0096034939859778
45.75415635108948,0.0097777679170941
45.79290056228638,0.0095356806803405
45.80111765861511,0.0096043740430757
45.83691740036011,0.0092659896031801
45.8487663269043,0.0092513714448063
45.88438844680786,0.008829438058095
45.92864298820496,0.0088580200570444
45.9463164806366,0.0088336936196955
45.97922372817993,0.0084966605430421
45.987892150878906,0.0083898700506386
46.02612924575806,0.0084233431996416
46.07630157470703,0.007847931219449
46.11550188064575,0.0086002190379559
46.11969304084778,0.0084452090790183
46.1595344543457,0.0086287897517873
46.2083842754364,0.0078437155327014
46.222967863082886,0.0073098758718564
46.25616908073425,0.007759153188574
46.2598340511322,0.0079479761552174
46.300360441207886,0.0074822590453675
46.30816626548767,0.0069412835418786
46.348536252975464,0.0062325838339438
46.36157298088074,0.005208283779651
46.40792965888977,0.0051058624477802
46.450568199157715,0.0046699266643231
46.48797225952149,0.0028439823794013
46.49723291397095,0.0027145327340717
46.53758788108826,0.0026883140203034
46.58415961265564,0.002471525213759
46.58464479446411,0.0027005477133502
46.620757818222046,0.0024962968878279
46.64225125312805,0.0023486901429383
46.666266441345215,0.0024099784417161
46.70803785324097,0.002302803498815
46.719826221466064,0.0022053116375429
46.75503611564636,0.0022118938342754
46.75777292251587,0.0021584133237197
46.80098605155945,0.0018698435566701
46.85334897041321,0.0020254612079625
46.89559578895569,0.0020674230225591
46.90885257720947,0.0020925085682057
46.941577196121216,0.0020617189475883
46.9569296836853,0.0019988864403285
46.99703526496887,0.001994992556974
47.04147291183472,0.001978600130485
47.08595418930054,0.0020613362923734
47.08889651298523,0.0019959243940873
47.1271538734436,0.0020295742752151
47.16974353790283,0.0019558002131431
47.18336200714111,0.0021252391887835
47.22395372390747,0.0021084964824519
47.22645306587219,0.0020697928123734
47.26645231246948,0.0021774387928285
47.30926728248596,0.0021270678078084
47.35378098487854,0.0020785131441071
47.35649847984314,0.0021447954380968
47.39579439163208,0.0021251861618691
47.44956135749817,0.0020471277665225
47.48987364768982,0.0021884091074418
47.498910665512085,0.0021511437169967
47.53341007232666,0.0022627422414662
47.58097290992737,0.0023047601679579
47.58361291885376,0.0023144700112807
47.62504959106445,0.0023432619706666
47.632035970687866,0.0023523339038223
47.668437480926514,0.0023582191138331
47.68280577659607,0.0022925527438708
47.72433662414551,0.0021264849406146
47.77731966972351,0.0020880337621526
47.777989864349365,0.0019177464415666
47.82203912734985,0.0018073240568108
47.829214096069336,0.0019087344530152
47.85975241661072,0.0018996797125077
47.91060400009155,0.0018644719061031
47.91713547706604,0.0019169823640047
47.959972858428955,0.0019393089479166
48.00431513786316,0.0021223472904409
48.00507831573486,0.0022068951977521
48.048210859298706,0.0022095489437456
48.09634828567505,0.002254359653024
48.106003522872925,0.0022940269596645
48.137593030929565,0.002226392217431
48.14391088485718,0.0022728299541305
48.17820620536804,0.0022505572726874
48.21977472305298,0.0021421140812936
48.23272347450256,0.0021147938612503
48.26517271995544,0.002035063892314
48.280123472213745,0.0020624567250131
48.320597410202026,0.0020295742752151
48.3622350692749,0.0019438942265024
48.36940264701843,0.001951733766263
48.40526628494263,0.0019553680143828
48.41640567779541,0.0020172937114028
48.46096634864807,0.0021192653393684
48.50799250602722,0.0021634979322348
48.55108833312988,0.0022883460184053
48.59356164932251,0.0023227812208804
48.60101580619812,0.0023805259637951
48.64630651473999,0.0023144213199365
48.689873933792114,0.0042217470958828
48.702439308166504,0.0042146807347212
48.730212450027466,0.005568012448416
48.74150037765503,0.0070098151625855
48.792484521865845,0.0088501797142872
48.83630156517029,0.0092636420292764
48.844433069229126,0.0097164618655393
48.88704180717468,0.0099658018464974
48.92474555969238,0.0104408650146884
48.93908214569092,0.0103625559319821
48.968900203704834,0.0102468627877894
48.9806489944458,0.0098475534621128
49.01978778839111,0.0097734218451726
49.064467430114746,0.0095768369758728
49.07266306877136,0.0097215405499723
49.10960912704468,0.0091820622810565
49.1130895614624,0.0093166459569121
49.15957832336426,0.0094430855156751
49.19696307182312,0.0093621967288524
49.20418119430542,0.0092019540340847
49.24090933799744,0.0090656492217463
49.25625276565552,0.0089362027856343
49.29972529411316,0.0086388402303391
49.341370582580566,0.0086096680643881
49.355836629867554,0.0086605914361418
49.38493871688843,0.0090991505401973
49.395569801330566,0.0088779460493354
49.435070276260376,0.0092142476213694
49.44735145568848,0.0092207518717654
49.479074478149414,0.0092213568271843
49.53440499305725,0.0093228793221124
49.5715811252594,0.0087809444424431
49.574471950531006,0.0081097207955395
49.61607646942139,0.0073168870648811
49.623472452163696,0.0066464993178371
49.670387983322144,0.0056892128167859
49.711583852767944,0.0061198394862155
49.71437954902649,0.0054901328875656
49.75644636154175,0.0051813187473248
49.769046783447266,0.0045382536288317
49.80670785903931,0.0045433413169785
49.81608009338379,0.0044953147913891
49.86327862739563,0.0044708056103957
49.909730672836304,0.0044201433239004
49.91817045211792,0.0026503389817322
49.956873178482056,0.0023872387417187
49.96416330337525,0.002360177589386
49.9949004650116,0.0023335511981756
50.00768280029297,0.0022125306033751
50.04950857162475,0.002198248398336
50.10317301750183,0.0021796889751659
50.14857745170593,0.0022888876679088
50.18672752380371,0.0022732265826185
50.1931836605072,0.0023366881147661
50.23834180831909,0.0023911065511906
50.28229737281799,0.0024274273416606
50.29271745681763,0.0024511736753753
50.32962346076965,0.0024697691157288
50.336230993270874,0.0024513805555419
50.374653577804565,0.0024210354798344
50.41939926147461,0.0024410150688399
50.43098187446594,0.0023954150880949
50.46638703346253,0.0023169275935281
50.47604727745056,0.0023277004477839
50.51263928413391,0.0021968894525768
50.51588582992554,0.002224391944253
50.559932470321655,0.002205464934998
50.60146498680115,0.0021871213381983
50.64037132263184,0.0021798699233565
50.64936375617981,0.0022127597953929
50.68796157836914,0.0022997183690302
50.73817849159241,0.0023032194300925
50.7465136051178,0.0023008696551466
50.77641916275024,0.0024267773037227
50.784008264541626,0.0024224780266901
50.82958245277405,0.0024162363170158
50.87281394004822,0.0024035167342129
50.88486313819885,0.0023895979069764
50.92217445373535,0.0024371571054627
50.9279146194458,0.0023416262526648
50.9671573638916,0.0023083512237068
51.01042819023132,0.0023134472778412
51.01739192008972,0.0022144143667567
51.0583815574646,0.002171167399493
51.06150984764099,0.0021979151497882
51.09860706329346,0.0021854203208858
51.11572861671448,0.0021791977543394
51.15510821342468,0.0022258100449079
51.192917346954346,0.0022021155135126
51.19896817207336,0.0022714412090207
51.24051785469055,0.0023637321296129
51.24793648719787,0.0023773757870198
51.28919339179993,0.002376332703979
51.33863377571106,0.0023603924450556
51.38062572479248,0.0024045245914481
51.388392210006714,0.002425523167164
51.42172384262085,0.0023890790905016
51.473599433898926,0.0023171950936053
51.50936937332153,0.0022880997716981
51.52088952064514,0.0022550094180333
51.5585412979126,0.0022572571603112
51.60374355316162,0.0022235051720617
51.61128878593445,0.0022866217345698
51.64375138282776,0.0022712427475443
51.649261713027954,0.0023103763611263
51.69685244560242,0.0023486421610356
51.73850464820862,0.0022846495309688
51.753883361816406,0.0023482102797924
51.78550148010254,0.0023992227463317
51.79691553115845,0.0023942386620262
51.834383964538574,0.0023667100085126
51.87934422492981,0.002427032696533
51.88361048698425,0.0023716806698534
51.922186851501465,0.0024162829566521
51.925015687942505,0.0024910998883893
51.97087740898132,0.0024229664365565
51.9769606590271,0.0024715936079094
52.02067971229553,0.0024156065937895
52.060362577438354,0.0023744112846933
52.07253646850586,0.0024254070106059
52.10936689376831,0.0023436466795791
52.11568355560303,0.002288321394927
52.15450501441955,0.0022949601398612
52.19622182846069,0.0022994978442301
52.25030517578125,0.0022718628820944
52.279930114746094,0.0022673692766847
52.29055047035217,0.0022140835514
52.33512997627258,0.0022961874307389
52.36871314048767,0.0023730819864732
52.385491132736206,0.0055686297172126
52.42411994934082,0.0076418203591907
52.48269033432007,0.0089875204774895
52.52078890800476,0.0094403761164841
52.52449655532837,0.0099296069995896
52.56024956703186,0.0103041116465808
52.568784952163696,0.0107141208936892
52.614540576934814,0.0106251724879504
52.657145977020264,0.0093402635592699
52.662736892700195,0.0088214956636768
52.69997358322144,0.0086711769093915
52.705284118652344,0.0087533081390721
52.74313187599182,0.0090651208964219
52.788827419281006,0.0089910494803032
52.7935426235199,0.008986548661491
52.82842946052551,0.0088128620132986
52.83867859840393,0.0088529615396119
52.877076387405396,0.0086469503990016
52.93071460723877,0.0087470102985686
52.97462844848633,0.0087849669383191
52.98125386238098,0.0088775017607413
53.02036499977112,0.0087680497724545
53.065839767456055,0.0085459365857028
53.106916189193726,0.0083676171501972
53.1113178730011,0.0084691012022544
53.15153241157532,0.0083969055147612
53.19196677207947,0.0082746645551878
53.204899072647095,0.0076223812876267
53.24316954612732,0.0074597460018516
53.251564264297485,0.0068461423597946
53.2866096496582,0.0064371092045184
53.333096504211426,0.0053202861206978
53.37282919883728,0.0044477578526162
53.394537925720215,0.0039516146149306
53.42470598220825,0.0034772918521672
53.4669234752655,0.0025210486621281
53.48350787162781,0.0025356015446323
53.51010417938232,0.0025481704006976
53.5293607711792,0.0025502702348382
53.551697969436646,0.0024515874182506
53.56953501701355,0.0023314978553502
53.61083507537842,0.0022492299312659
53.66442346572876,0.0021287360446201
53.67775225639343,0.0020257115654003
53.70233678817749,0.0020587104548904
53.71707701683045,0.001964596313685
53.74501371383667,0.0018849103556081
53.75625276565552,0.0019504341794054
53.79877519607544,0.0019936363800331
53.84679985046387,0.0020420293338736
53.85589027404785,0.0021773611588578
53.895920276641846,0.002318240479559
53.937665939331055,0.0023905644917722
53.9464647769928,0.0023746723094052
53.9933443069458,0.0023560916089918
54.042957067489624,0.0022216037540227
54.08532428741455,0.0021139144237766
54.09068727493286,0.0020044038818496
54.13229560852051,0.0018514311481325
54.13592886924744,0.0016963904226653
54.17346668243408,0.0017277550010417
54.22977638244629,0.0021025286615314
54.26942014694214,0.0021653202640091
54.27578806877136,0.0021825565293252
54.317699670791626,0.002249179827573
54.37304329872131,0.0023271920444454
54.406165599823,0.0023213980856907
54.417283058166504,0.0020964901005414
54.4510190486908,0.0020358666843506
54.4713716506958,0.0019718964249565
54.50857138633728,0.0019473116323188
54.519108295440674,0.0019419221425758
54.55491805076599,0.002040759638162
54.56451940536499,0.0019893357203486
54.608304262161255,0.0020444561198069
54.65612006187439,0.0019910061584592
54.66741418838501,0.0020044319931203
54.70655012130737,0.0019795112193205
54.710795879364014,0.0020104667893876
54.75359797477722,0.001999760110343
54.75826716423035,0.0019471380106558
54.799906730651855,0.0052983707296895
54.845396280288696,0.006868878223103
54.84808707237244,0.007729919523433
54.89378380775452,0.0083837562230975
54.93823766708374,0.0087158665934023
54.94329237937927,0.0089793100280719
54.98721218109131,0.009482890904547
55.03418707847595,0.0090806842640934
55.05145192146301,0.0081847393029695
55.07581686973572,0.0076802647853538
55.09184718132019,0.0077659401619379
55.12884545326233,0.0079045195791976
55.17116665840149,0.0081299768525124
55.17884039878845,0.0081159022031115
55.21708106994629,0.0080555395677657
55.22172570228577,0.0081494635248108
55.261589765548706,0.0079804433022636
55.26588797569275,0.0079712026847305
55.31180000305176,0.0080281574252503
55.35386395454407,0.0079567905364772
55.366167068481445,0.0079973214750859
55.39856171607971,0.0077024332269279
55.40255331993103,0.0076293268612871
55.44447326660156,0.0077702415552469
55.48997521400452,0.0076791715598768
55.49819779396057,0.0075889243493777
55.53193664550781,0.00718011889859
55.54339814186096,0.0071866372993206
55.58389306068421,0.0069032864700688
55.63034534454346,0.006764695081077
55.646238803863525,0.0061425025385119
55.675904273986816,0.0056690817089512
55.68238687515259,0.0050496015129451
55.725964069366455,0.0046737017562596
55.74263119697571,0.0039342372583059
55.76856565475464,0.0033325916218349
55.78218364715576,0.0031227177288321
55.82039785385132,0.0022164999102843
55.87300634384155,0.0024017109098313
55.90941596031189,0.0023623252667228
55.91910767555237,0.0023873803573763
55.95821976661682,0.0023269499085764
56.00097036361694,0.0022393378611261
56.0127317905426,0.0021817302336998
56.05277347564697,0.0021038682102481
56.05549383163452,0.0020370564488217
56.09217643737793,0.0020204754325944
56.13790464401245,0.0019864728962966
56.15049624443054,0.0019619558803516
56.18143343925476,0.0018968598077884
56.18997573852539,0.001986784889186
56.230639696121216,0.0020254055687737
56.275057315826416,0.0021507507733614
56.29123425483704,0.0022058736761283
56.321513652801514,0.0022933391102255
56.326274156570435,0.002287114519743
56.37026023864746,0.0022743912787915
56.41955018043518,0.0022678413993918
56.46296238899231,0.0022271513441966
56.468074560165405,0.0022068951977521
56.501134157180786,0.0021172969233958
56.51963186264038,0.0020444285588754
56.55674695968628,0.0020580260932041
56.602545738220215,0.0020122316963711
56.61850142478943,0.0019844011551006
56.648303270339966,0.0019960655435796
56.65583705902099,0.0019738671080471
56.69443655014038,0.001958707868536
56.70905256271362,0.0020027727530294
56.743162870407104,0.0019933537270352
56.79021620750427,0.0020971081735315
56.82598066329956,0.0020837656834512
56.84552216529846,0.0021518246493176
56.881314516067505,0.0021125812451878
56.924912214279175,0.0020881956691634
56.94676041603088,0.0021735796211297
56.96792197227478,0.002177154121402
56.974838972091675,0.0020759633195185
57.02031970024109,0.0020616916174283
57.03034472465515,0.0020538053962904
57.07116103172302,0.002033318803619
57.11860966682434,0.0020802474065232
57.1226372718811,0.0020426914705103
57.16723155975342,0.0020517741808017
57.20428824424744,0.0019869266879407
57.21560001373291,0.0020382455188037
57.25129985809326,0.0020724317969004
57.30263304710388,0.0021073737899921
57.30868220329285,0.0021402983174788
57.34602499008179,0.0021099390664013
57.35709571838379,0.0020524606270938
57.393147468566895,0.0020761261678448
57.43972420692444,0.0020171261133706
57.45130181312561,0.0020073253454584
57.48142623901367,0.0020261843783816
57.49340033531189,0.0019520801766369
57.52399182319641,0.0019147765858207
57.54565167427063,0.001947716689345
57.589322328567505,0.0019420091885051
57.63126730918884,0.0019257509526479
57.63835000991821,0.0020667415458739
57.674884557724,0.0021021266304629
57.6769073009491,0.0021699992328208
57.72075796127319,0.0022179992712031
57.73047423362732,0.0022055160317819
57.773863077163696,0.002276248602271
57.82189178466797,0.0022706224436279
57.826382875442505,0.0022702005401519
57.86126232147217,0.0023302891614499
57.87395691871643,0.0022569326247493
57.90547227859497,0.002198248398336
57.91631174087525,0.0022800575637071
57.95291042327881,0.0022218320101041
58.00073194503784,0.0022402938218361
58.01522421836853,0.0022897737270848
58.057071685791016,0.0022425814397664
58.096534729003906,0.0022234291465602
58.13683795928955,0.0021879455978298
58.142446994781494,0.0022480020693143
58.18541741371155,0.0022088602968726
58.195653200149536,0.0022182024963521
58.22855615615845,0.0021622474456439
58.2775559425354,0.0023520464437218
58.2836172580719,0.0023603685731692
58.3201699256897,0.0024700884991426
58.32216215133667,0.0024351448467724
58.36479687690735,0.0023231208123263
58.398322343826294,0.0025245106149046
58.44210886955261,0.0025637343819629
58.44295024871826,0.0025748751939348
58.48456525802612,0.0025986618737868
58.4958872795105,0.0024933155865344
58.529949426651,0.0024652705472814
58.53643846511841,0.0024771727559789
58.57678747177124,0.0024524836216944
58.62184977531433,0.0023790106099347
58.62893009185791,0.0024452356678712
58.66700100898743,0.0024310457997455
58.67358493804931,0.0024294923786519
58.72111773490906,0.002480082584755
58.76488423347473,0.0024296083398937
58.77601337432861,0.0024204768437896
58.8084728717804,0.0025029693205245
58.82208180427551,0.0025532953758189
58.85699200630188,0.0025740434946708
58.903624057769775,0.0026049207180424
58.90499687194824,0.0026163599688733
58.95059037208557,0.0026185987870746
58.9609580039978,0.0026770138558773
58.98911428451538,0.0027281775898014
59.007171869277954,0.002713764600317
59.05247759819031,0.0026040986147614
59.09806513786316,0.0026175657243091
59.11888289451599,0.0025959500862775
59.15059018135071,0.0024111939262551
59.19556784629822,0.0023233875993558
59.20100140571594,0.0022549844305335
59.23627185821533,0.0022131162691318
59.24355411529541,0.0021074005277157
59.28841829299927,0.0021040824589017
59.33350372314453,0.0021604746839967
59.3369402885437,0.0022109001082706
59.379903078079224,0.0022900690039594
59.42714619636536,0.0022383059719298
59.43253135681152,0.0022351318186355
59.476394176483154,0.0022874840389561
59.51796555519104,0.0022877057218346
59.5275456905365,0.0022530345517189
59.578654050827026,0.0021655024128416
59.62438368797302,0.0022009893734738
59.62703466415405,0.0022116900294436
59.67494702339173,0.0022718876839556
59.71441960334778,0.0022895522444383
59.71697640419006,0.0023066174662422
59.7677481174469,0.0022783270070106
59.77194166183472,0.0023269499085764
59.81701707839966,0.0023356268608194
59.86024785041809,0.0023508003770953
59.86257719993591,0.0023315703570587
59.90511107444763,0.0021714009574137
59.951252460479736,0.0021035735827196
59.96070456504822,0.0023433341083986
60.00145769119263,0.0022737718338209
60.045876264572144,0.002137558599631
60.04934096336365,0.0021263789475957
60.09058380126953,0.0020936392320027
60.094664096832275,0.0020832788918091
60.136767864227295,0.0020850091901903
60.18358087539673,0.0019760924702401
60.22248458862305,0.0019754365343171
60.23007273674011,0.0020527900397795
60.27630782127381,0.0021546769850049
60.31478977203369,0.0022359131790538
60.32096862792969,0.0023476103129261
60.35938286781311,0.0023453290391002
60.366814613342285,0.002369898139047
60.41058516502381,0.0023883242471682
60.459455251693726,0.0023628261105465
60.46153545379639,0.0023641611753507
60.500643730163574,0.0023276520332026
60.502684116363525,0.0022433350882344
60.546778440475464,0.0022182532997302
60.55292654037475,0.0021737869990308
60.59598231315613,0.0021240457630104
60.654468059539795,0.0021033860709868
60.6833221912384,0.0020569032471201
60.690688610076904,0.0021328613009485
60.738141775131226,0.002117829108128
60.78264117240906,0.0022294271735837
60.82666540145874,0.0022170591125733
60.828397035598755,0.0022876564608292
60.8709442615509,0.0022724084605089
60.9120032787323,0.0023221018889999
60.92781376838684,0.0023574304876956
60.96197700500488,0.0024235942474735
60.96690559387207,0.002384995373214
61.00712156295776,0.0024299098132233
61.05756735801697,0.0024268933946955
61.06753444671631,0.002401570139217
61.099204540252686,0.0024905795920044
61.10850787162781,0.0023827971876522
61.14547085762024,0.002370753921098
61.14933872222901,0.0023041244327442
61.18849968910217,0.0022693564978875
61.24265646934509,0.002167946928839
61.28491520881653,0.0020831977488097
61.329161405563354,0.0020677500515911
61.37103438377381,0.0021315928416312
61.412816524505615,0.0021553568010764
61.417096853256226,0.0021513008743544
61.45848107337952,0.0022483278939603
61.50818610191345,0.0022581556307569
61.54689311981201,0.0022993263103189
61.54938745498657,0.0023819220766158
61.593183517456055,0.0023477543189569
61.63529419898987,0.0023584819306123
61.641587018966675,0.0023720607697288
61.686192750930786,0.0023219805588212
61.68992352485657,0.0023927555416488
61.73208713531494,0.002349409753886
61.774909257888794,0.0023145673908962
61.77979135513306,0.0022690336928715
61.82374334335327,0.0022225419902223
61.83771777153015,0.0022191675616561
61.878233671188354,0.0022450173230147
61.8855345249176,0.0022005541195672
61.934831857681274,0.0021954783364812
61.97128081321716,0.0021624298533104
61.98236060142517,0.0021738647606434
62.026416301727295,0.0022740939662633
62.07244610786438,0.0023043934190467
62.07482600212097,0.0023181675609528
62.118654012680054,0.002395956050118
62.16060137748718,0.0023501531203826
62.16211438179016,0.0023869318789702
62.20356345176697,0.0024076860529177
62.21167755126953,0.0024200810652375
62.25310707092285,0.0024296547228407
62.2534384727478,0.0024453047973292
62.29646420478821,0.0024571431967262
62.34088516235352,0.0024401377449684
62.34302473068237,0.0023988704392809
62.38422632217407,0.0023984476025097
62.387481689453125,0.0025580576744544
62.42846393585205,0.0024750109056838
62.47132706642151,0.0024976282883861
62.478612184524536,0.0024232454837113
62.51553535461426,0.0023108640806988
62.52920985221863,0.0023609652979175
62.57321119308472,0.0022968008302527
62.61461114883423,0.0023398930696259
62.617724895477295,0.0023690896165947
62.66469144821167,0.0023257388510948
62.713096618652344,0.0023763801267772
62.71996736526489,0.0023831755145212
62.7566921710968,0.0023654002036672
62.769336462020874,0.0024236639942035
62.812286376953125,0.0024149767063581
62.858402967453,0.0023465059730816
62.90109372138977,0.0023341064980697
62.90388584136963,0.0023316428565127
62.94519662857056,0.0024039855575802
62.99487209320069,0.0024244310758051
63.032490253448486,0.002353387623784
63.036226749420166,0.0023539621813179
63.08370304107666,0.002373248189469
63.125457763671875,0.0023046868228446
63.14114570617676,0.0022470995391167
63.17112326622009,0.0022757287044938
63.17934012413025,0.002249981352772
63.22042107582092,0.0021596138487377
63.265908002853394,0.0022654549299456
63.307626485824585,0.0023531242380297
63.30968713760376,0.0023693987901101
63.35361623764038,0.0023655193068039
63.35982728004456,0.0023655669463795
63.40934634208679,0.0023304825946006
63.451889514923096,0.0023580040601348
63.455787658691406,0.0024065858672182
63.50013065338135,0.002302411965445
63.50247764587402,0.0022364927216718
63.542466163635254,0.0022254049655024
63.54783892631531,0.002254534608179
63.58751678466797,0.0022812187722658
63.64116859436035,0.0024186603855465
63.678537130355835,0.0024307908285748
63.690672159194946,0.0025080967945419
63.73652505874634,0.0025359792945019
63.78410005569458,0.0026262479858563
63.824225664138794,0.0025658653994141
63.82752585411072,0.0025986185074635
63.8692901134491,0.0025765815250153
63.88048887252808,0.0024633498776584
63.923866271972656,0.0024345200145111
63.9685492515564,0.0024194057641645
63.979832887649536,0.0024232919884464
64.0188717842102,0.0024532187235832
64.02186107635498,0.0024524606462099
64.05787324905396,0.0023599149614473
64.10136818885803,0.0024394217996955
64.10317587852478,0.0024574412921443
64.1430435180664,0.002427032696533
64.14488625526428,0.0024480913916331
64.18809151649475,0.0024461111633189
64.19675993919373,0.0024267773037227
64.24086904525757,0.0024185904945237
64.28312087059021,0.0024085284084596
64.28718829154968,0.0023178515538179
64.3298192024231,0.0024134362894409
64.33488392829895,0.0023566894166876
64.37665367126465,0.0024049463597656
64.42231798171997,0.0024874781805338
64.46833729743958,0.0024981922271339
64.4700448513031,0.0026206636909091
64.51002311706543,0.0026059804157644
64.55465030670166,0.002565404195254
64.56321048736572,0.002557440839718
64.60705089569092,0.002492321026944
64.64790606498718,0.0024143933307326
64.68742179870605,0.002396355813125
64.69365191459656,0.002353315794229
64.73865866661072,0.0022312461657556
64.76504373550415,0.0022391617185854
64.80454659461975,0.0022525593255888
64.848393201828,0.0022906840418664
64.86176824569702,0.0024270559127286
64.90227937698364,0.002482058411712
64.95221519470215,0.0026268272129931
64.98903465270996,0.0026224261754035
64.99381422996521,0.0027006729000204
65.03703904151917,0.0027413023733781
65.04368758201599,0.0026847694640737
65.08487033843994,0.0026969147721407
65.14313793182373,0.0025362236909073
65.18344593048096,0.0023964263526155
65.21894025802612,0.0023642565082745
65.23457288742065,0.002355374039477
65.2750597000122,0.0023869790911915
65.32167172431946,0.0023539382442206
65.34028697013855,0.0024678976114126
65.3688542842865,0.0024807640821578
65.37575840950012,0.0025330446983855
65.41775155067444,0.0026306854680169
65.42914414405823,0.0025732115265894
65.4698371887207,0.0026359065306779
65.51161980628967,0.0026900950200251
65.51784300804138,0.0026305997904951
65.55741119384766,0.0025953639680663
65.55885887145996,0.0025224340134079
65.60614347457886,0.0024929313719103
65.64651298522949,0.00247184437027
65.65306210517883,0.0023446802720072
65.6965684890747,0.0024131327580703
65.75084328651428,0.0024107732509587
65.78917837142944,0.0025137742497809
65.79579210281372,0.0025071530477864
65.8360493183136,0.0024347745951591
65.8801052570343,0.0024960034329024
65.88200259208679,0.0025058941658955
65.92408800125122,0.002474897071779
65.93628644943237,0.0023914835635389
65.97317409515381,0.002324842262408
66.02219367027283,0.0022944935972039
66.02808904647827,0.0022345771390406
66.06386971473694,0.0022268224210382
66.07056450843811,0.0022481775192222
66.10882329940796,0.0021702329164581
66.11387157440186,0.0022131417293446
66.15721678733826,0.0022049794564947
66.2026858329773,0.0023184349179632
66.20762872695923,0.0023028524358056
66.2530767917633,0.0023289104852151
66.25949454307556,0.0023526931795564
66.29515814781189,0.0023256903956784
66.34207057952881,0.0023225628858739
66.34346199035645,0.0023499133504318
66.3856246471405,0.0025118009382604
66.39120388031006,0.0025932789193521
66.43304228782654,0.0025115541653066
66.48482966423035,0.00258256662373
66.48746728897095,0.0026521667286511
66.52440690994263,0.0026929421695926
66.52529096603394,0.0026606513760389
66.56923985481262,0.0027519905523982
66.5750195980072,0.0026055911891308
66.61901998519897,0.0025775217117005
66.65924191474915,0.00271629654297
66.66701126098633,0.0027295816744509
66.70724821090698,0.0026455724107776
66.71153593063354,0.002658214813685
66.75114822387695,0.0026231566143566
66.79544138908386,0.0026533137402083
66.79761528968811,0.0026060669026773
66.84038257598877,0.00254256975183
66.84271359443665,0.0026436761643176
66.88452076911926,0.0025065236858739
66.92908835411072,0.0025138190797675
66.97503614425659,0.0025471751382291
66.97951221466064,0.0026122432952984
67.02221035957336,0.0025678629935684
67.06658172607422,0.0025761659843862
67.07398557662964,0.0025440541278545
67.10684943199158,0.0025924096541115
67.11311435699463,0.0025833301448859
67.163809299469,0.0025895607677901
67.21182584762573,0.0025452941362068
67.25469660758972,0.0025914313821809
67.29724264144897,0.0027144289449153
67.30615615844727,0.0028013027565991
67.3454852104187,0.0028043584902195
67.39206171035767,0.0027731823806735
67.39487195014954,0.002815647876712
67.43565821647644,0.0026921469456339
67.43789434432983,0.0027932050334579
67.48153257369995,0.0027712717893123
67.52319765090942,0.0026821657452261
67.5269775390625,0.0026039687852543
67.56821513175964,0.0026298071410922
67.5717556476593,0.0026143132189951
67.61962890625,0.0024865492688334
67.66229820251465,0.0023515433039902
67.70420742034912,0.0027237748167295
67.71185493469238,0.0027855692823973
67.75059151649475,0.0027702143003322
67.79226756095886,0.0028270914955668
67.83724308013916,0.002720214325251
67.83995246887207,0.0028253170805097
67.88171935081482,0.0031031688748242
67.92385196685791,0.0027925997842182
67.92464327812195,0.0027550191712841
67.96642446517944,0.0026128903226026
67.97801494598389,0.0026187063743424
68.02250480651855,0.002485982688912
68.06943726539612,0.0025062314284057
68.0731463432312,0.0024872063398488
68.10778021812439,0.0022969725527624
68.11288666725159,0.0023648045980044
68.15666651725769,0.0023566655072913
68.19865369796753,0.0024288892909499
68.20201444625854,0.0024055554501168
68.24392175674438,0.0026274492036136
68.24765586853027,0.0027482205882884
68.29670476913452,0.0027218295438933
68.33962106704712,0.0028731946501803
68.35515260696411,0.0029880559384644
68.39037156105042,0.0029077961428202
68.39327120780945,0.0029282261012652
68.43354105949402,0.0028572654385988
68.47648477554321,0.0048544832685987
68.47932291030884,0.0047368233437797
68.52454733848572,0.0046491028052436
68.56414985656738,0.0045996327465298
68.57530474662781,0.0046319213759278
68.61209487915039,0.0046478421630664
68.65889739990234,0.0026446777223134
68.69998526573181,0.0022920611278971
68.70766234397888,0.0022864492346677
68.75267171859741,0.0023239938196145
68.79599261283875,0.002304540125615
68.79635286331177,0.0021801283947191
68.84265184402466,0.0021319628868913
68.84516787528992,0.0022562084925843
68.88409233093262,0.0022052349848191
68.93592166900635,0.0022995468515689
68.97461915016174,0.0024998832800773
68.97963905334473,0.0024183109102331
69.02054738998413,0.0023414096749466
69.06527185440063,0.0023466740583222
69.07634687423706,0.0022278090448225
69.11008286476135,0.0021903393417075
69.11085247993469,0.0021484965093386
69.15626239776611,0.0020950382560359
69.19898319244385,0.0018823976192998
69.20259165763855,0.0018461890529753
69.24553680419922,0.0020804640876765
69.24632239341736,0.002129000723901
69.28844046592712,0.0021607093977271
69.33569312095642,0.0023118148379182
69.37890005111694,0.0023151272441973
69.38176703453064,0.002317973100122
69.42583274841309,0.002321640800588
69.47328567504883,0.0021437180409244
69.51078128814697,0.0021434814666213
69.51375436782837,0.0021458460359742
69.5565459728241,0.002094876877869
69.60409426689148,0.0020941774287757
69.6044602394104,0.0021308261148777
69.64768385887146,0.0021536306951018
69.65313220024109,0.0021598747441382
69.69571685791016,0.0022035479502857
69.74069571495056,0.0021889240030085
69.74592447280884,0.0021993247023924
69.78748345375061,0.002196581650018
69.79099249839783,0.0022333159912541
69.83248090744019,0.0022467735363362
69.87566947937012,0.0022207919868433
69.87652897834778,0.0022042382568396
69.91962242126465,0.0020833870775591
69.92100811004639,0.0020323763871756
69.96774554252625,0.0019294341421578
70.01250338554382,0.001802047460471
70.01848673820496,0.0018255640243662
70.0582160949707,0.0018720420801298
70.10535287857056,0.0019110946312985
70.11209464073181,0.0018056709258288
70.15584206581116,0.0019033245406397
70.20045042037964,0.0019491048172286
70.20174145698547,0.0020407872486424
70.25108575820923,0.00179440180644
70.2919249534607,0.0018408708144342
70.29720211029053,0.001899116066535
70.3389163017273,0.0019538978234976
70.38447546958923,0.0020044882144791
70.38792848587036,0.002011559533443
70.42720818519592,0.0028046799527212
70.432452917099,0.0028404337068662
70.48024296760559,0.0028495047381347
70.5256974697113,0.0028973521223695
70.57489514350891,0.0029582065639749
70.61619353294373,0.0030740340910723
70.65886545181274,0.0024733711919904
70.66776466369629,0.0021460035812948
70.70774626731873,0.002168310769897
70.71264004707336,0.0022373239771258
70.75163865089417,0.002251333279467
70.79849767684937,0.0025100730181027
70.83947443962097,0.0025680604733872
70.84040832519531,0.002654821093858
70.88504719734192,0.0026452955157315
70.89339804649353,0.0026557547991298
70.93520998954773,0.0026292714318939
70.98537254333496,0.0024794236258769
70.98950386047363,0.0025657336352565
71.03049397468567,0.0024663445550881
71.03222751617432,0.0019800804369591
71.07270860671997,0.0019505208454679
71.11927485466003,0.0019423573332129
71.16002035140991,0.002112207804391
71.16338753700256,0.0021254512832117
71.20237183570862,0.0021674530468549
71.24687623977661,0.0021975049283536
71.25196480751038,0.0021895674521952
71.29201364517212,0.00223699654973
71.3020887374878,0.0023123753576449
71.34378743171692,0.00238246610236
71.39141035079956,0.0024108199962832
71.43129706382751,0.0022912497309298
71.43662929534912,0.0025526553166321
71.48154997825623,0.0026248530259089
71.52370357513428,0.0025940610090163
71.53737807273865,0.0025428799915666
71.56837677955627,0.0025465114138157
71.57127594947815,0.0025055568579878
71.61192345619202,0.0024914617696171
71.66448044776917,0.0024918009855369
71.66800546646118,0.0024120817776131
71.71120381355286,0.0021437180409244
71.75064587593079,0.0021642270490782
71.75732970237732,0.0021316721424518
71.80043697357178,0.0020903262752243
71.84256768226624,0.0020439875334295
71.84643650054932,0.0020491910849808
71.88760495185852,0.0019996474001774
71.89287662506104,0.0019123620235236
71.93567681312561,0.0020064549695744
71.98247146606445,0.0020268238909738
72.02490234375,0.0020869270613975
72.0259337425232,0.0020227330878885
72.06877398490906,0.0020399311499734
72.11566805839539,0.0020657598244952
72.1588180065155,0.0019389602558644
72.1643877029419,0.0018930239493179
72.21045207977295,0.0018831458079266
72.25845217704773,0.0018934406199509
72.26390671730042,0.0018867628478052
72.30326581001282,0.0021351056821824
72.30489230155945,0.0022547845205658
72.3489818572998,0.0022483028322024
72.36031103134155,0.0023206940689371
72.40404939651489,0.0024088325200136
72.44538855552673,0.002395085747042
72.45758247375488,0.0023435985944186
72.49668216705322,0.0024722318620704
72.49853754043579,0.0023900930358271
72.54210782051086,0.0021182281589323
72.54722714424133,0.0022185580955683
72.59563446044922,0.0021790684672962
72.6064772605896,0.0021346833907063
72.64231705665588,0.0021230905393835
72.65879273414612,0.0021582044685908
72.70787954330444,0.0021337857438262
72.75062298774719,0.0021578389234733
72.75984048843384,0.0021236212722217
72.80237364768982,0.0020900297387157
72.80795478820801,0.0023086929376982
72.85220980644226,0.0023266593122707
72.89326858520508,0.0023577650885756
72.93254685401917,0.0024302344349852
72.94132733345032,0.0027936891384386
72.97725129127502,0.0056565542818253
73.00091695785522,0.0067537161799355
73.02410840988159,0.0076494701924159
73.0389096736908,0.0082049475054852
73.07407927513123,0.0089287971245546
73.12325739860535,0.0096759111274544
73.12785387039185,0.0100763297879686
73.16436171531677,0.0104584759468115
73.17782044410706,0.0096875160349204
73.21515345573425,0.0093864801289459
73.25650119781494,0.0091154717885968
73.27146506309509,0.0090236663564843
73.30355858802795,0.0090452147820926
73.3137457370758,0.0090268504021707
73.34296154975891,0.0091382220025556
73.35530400276184,0.008679341258791
73.4065306186676,0.0091332446445494
73.44707155227661,0.0089208989771037
73.45705533027649,0.0092950538981851
73.49876046180725,0.0088297826626226
73.53981447219849,0.0089620806953678
73.5759539604187,0.0085230400193061
73.5830283164978,0.0087678441261908
73.62025785446167,0.0088997460020171
73.63827610015869,0.0088595084289778
73.67561745643616,0.0092358211636102
73.7134370803833,0.0089665749437445
73.72022414207458,0.0092945083010243
73.76144766807556,0.0091002094007034
73.76888227462769,0.0089983913842888
73.80915212631226,0.0089530036139923
73.84856915473938,0.0086284371199618
73.85325694084167,0.0083070486870159
73.89325642585754,0.0082333979298281
73.9057788848877,0.0081462547205356
73.94571256637573,0.0076314683687244
73.99146771430969,0.0067005786960098
73.99623250961304,0.0060061609039591
74.03677678108215,0.0054328005215374
74.04492521286011,0.0045967898056973
74.07952570915222,0.0044380050289056
74.08790993690491,0.0036872623672099
74.13188767433167,0.003381668615648
74.16909313201904,0.0023926142441412
74.1780138015747,0.0024695409594298
74.21303343772888,0.0024988913344325
74.22394752502441,0.0025034870419699
74.2630512714386,0.002401875131787
74.31097531318665,0.0023380622048002
74.31831955909729,0.0021563499928886
74.35179996490479,0.0020204754325944
74.35467100143433,0.0018988193435567
74.39953517913818,0.0017762225096733
74.44771027565002,0.0015627115884383
74.49138116836548,0.001622434617194
74.50307154655457,0.0016442030492125
74.53965449333191,0.0017565405012378
74.58499956130981,0.0018729448347177
74.5976209640503,0.0020275743657704
74.62818169593811,0.0020910000654373
74.63631176948547,0.0020689487157885
74.66994118690491,0.0021532905414194
74.71959447860718,0.0021187069206865
74.7243344783783,0.0022550843788717
74.76398825645447,0.0021473947296372
74.77254056930542,0.0022006053303774
74.81047558784485,0.0021340762003108
74.81901526451111,0.0021483391468333
74.86486172676086,0.0020709086697506
74.91273236274719,0.0020625113646943
74.93147325515747,0.0019823272487176
74.96758699417114,0.0019782013971703
75.00829339027405,0.0019224710824648
75.0182511806488,0.0019543880100097
75.04934859275818,0.0019548780736072
75.06133580207825,0.0022026527864682
75.10044050216675,0.0023161978908402
75.14761543273926,0.00244253809292
75.15330052375793,0.0024840553505439
75.19002199172974,0.0026420984737428
75.20051741600037,0.0025932354630104
75.23623538017273,0.002652888978937
75.28750872612,0.0024226175824137
75.32382655143738,0.0023753603279722
75.33095288276672,0.0023079606314793
75.37645387649536,0.0050785977025169
75.42723727226257,0.0061976795161735
75.42727518081665,0.0068465374093161
75.4704282283783,0.0069000616060246
75.48535299301147,0.0074806472994834
75.5142114162445,0.0078206795654195
75.52231526374817,0.0082784497987578
75.56439566612244,0.0086710924328395
75.60896706581116,0.0084831477929762
75.61472845077515,0.0075172477619623
75.65425252914429,0.0076708902750036
75.66029214859009,0.0078103698505233
75.70047044754028,0.0078614105258868
75.71133065223694,0.0077884362888271
75.74812364578247,0.0077995769413069
75.79732823371887,0.0079417846586294
75.80478286743164,0.0074165664312758
75.85115265846252,0.0075349541453665
75.8575119972229,0.0073444506333638
75.89501166343689,0.007308349468571
75.90737867355347,0.0074735861697905
75.94409728050232,0.0075390360529541
75.98822689056396,0.0072744242121751
76.00026607513428,0.0071586235238142
76.03230142593384,0.0072404567317715
76.04427886009216,0.0071823629628759
76.07926535606384,0.00714732735495
76.12786507606506,0.0070765765470356
76.13533687591553,0.0069019803775825
76.17087578773499,0.0068689684576358
76.17838025093079,0.0067234129057752
76.21275877952576,0.0067592537090735
76.22310328483582,0.0067582032616905
76.27093887329102,0.0068433105041841
76.30831146240234,0.0067789069906431
76.3247618675232,0.0068524933104603
76.36302661895752,0.0068536115210822
76.37252140045166,0.0067025209476089
76.40164947509766,0.0063762212958536
76.41307663917542,0.0064310139368015
76.44865036010742,0.0062392161570651
76.49752354621887,0.0057794371630846
76.5054349899292,0.0050223118247139
76.54198884963989,0.0045661410828995
76.54567742347717,0.0041884490288255
76.5844178199768,0.0048095646950865
76.6322512626648,0.0047138330877104
76.63532519340515,0.0040354811428604
76.67839097976685,0.0038506825488662
76.68770170211792,0.0037841722098057
76.72577142715454,0.0037749887596594
76.7706036567688,0.0038032282387847
76.78294205665588,0.0036766264159622
76.81269240379333,0.0024502769928109
76.81905961036682,0.0021192387513392
76.86266899108887,0.0020643682533638
76.90614986419678,0.0022648827982459
76.91285252571106,0.0022640616610992
76.95310115814209,0.0033904881898474
76.95772457122803,0.0034042540660357
76.99363946914673,0.0033879944133513
77.00713539123535,0.0033412540562429
77.05236911773682,0.0033040132879344
77.09551525115967,0.003257572817644
77.10568237304688,0.0031731764696719
77.14837193489075,0.0041508136493167
77.18440461158752,0.004363163451068
77.19196486473083,0.0047420188144759
77.23283743858337,0.0051497941542596
77.27427411079407,0.0056198572863613
77.28228235244751,0.0059828024812558
77.32191443443298,0.0062491243934922
77.32941579818726,0.0061908479700886
77.37048006057739,0.0061817761114423
77.41846013069153,0.0066058347697651
77.42496180534363,0.0070281425573953
77.46235299110413,0.0069671306418121
77.47254347801208,0.0070223356324183
77.50530433654785,0.0070444468706409
77.55260300636292,0.0070548216021502
77.5611846446991,0.0071352078559719
77.60165905952454,0.0070999395586334
77.61129856109619,0.0067129960383585
77.64018654823303,0.0063852110354163
77.64771175384521,0.0065357571836334
77.7044153213501,0.0062367230864203
77.7440459728241,0.0061872062516532
77.75042152404785,0.006183225222635
77.78865265846252,0.0059430294220896
77.79861783981323,0.0058779835965819
77.83787107467651,0.0057950348456242
77.84720849990845,0.0060271294564657
77.88612365722656,0.0061341583832519
77.932213306427,0.0061685817765076
77.93929195404053,0.0061076461812545
77.98072862625122,0.0064382207931747
77.98959970474243,0.006393324484162
78.02593231201172,0.0063552342045611
78.03679752349854,0.0062591969920676
78.07327032089233,0.0061877617522174
78.12913131713867,0.0058351310562388
78.17570757865906,0.0059643805362814
78.18150544166565,0.0057083451490216
78.21388101577759,0.0053889592683047
78.25763058662415,0.0053302111479326
78.26070547103882,0.0051179322666479
78.30021786689758,0.0051059065903652
78.30594944953918,0.0048656017966376
78.34148526191711,0.0049401769982853
78.35697770118713,0.0047921355106394
78.39847230911255,0.0043189798247615
78.4473819732666,0.0041869151187261
78.45936298370361,0.0038874985769651
78.49457383155823,0.0038613206210783
78.50032782554626,0.0035406722177774
78.53222012519836,0.0034723622809372
78.57778191566467,0.0028797764677068
78.58935832977295,0.0026513592749154
78.62301588058472,0.0025400642867335
78.62889266014099,0.0024081774627916
78.66422533988953,0.0022617459434009
78.67611646652222,0.0021157794625138
78.7257125377655,0.0020434361177689
78.76953172683716,0.002060051144301
78.77177858352661,0.0019343050220997
78.80786871910095,0.0020535584638855
78.8246693611145,0.0021243640754377
78.85575294494629,0.0023052246328172
78.86281681060791,0.0023943092638907
78.90929007530212,0.0024765812792492
78.94869780540466,0.0025349792456673
78.95698285102844,0.0025830029491692
79.00664067268372,0.0024493569773867
79.04523205757141,0.0023885601613353
79.09374046325684,0.0021376640383229
79.13599967956543,0.0020312671021615
79.14493823051453,0.0023305309503796
79.17643666267395,0.0022471496891929
79.22065258026123,0.0022081969524623
79.22931027412415,0.002274366504232
79.26749634742737,0.0023079118028029
79.28009295463562,0.0027605562056739
79.30976152420044,0.0027440347909389
79.35790276527405,0.0027803455381682
79.36822891235352,0.0026839088365529
79.40469980239868,0.0024482755174925
79.40780138969421,0.0025487231563583
79.44818186759949,0.0025049945772085
79.4925925731659,0.0025369345283984
79.50249481201172,0.0020848200087498
79.54799628257751,0.0020493560607149
79.5920741558075,0.002143796893224
79.63622641563416,0.0035080892891414
79.68766021728516,0.0047180866094572
79.72497916221619,0.0059979370890308
79.73764491081238,0.0065724584737793
79.76858019828796,0.006958933172141
79.81220626831055,0.0071971671994277
79.82367825508118,0.0074327767948998
79.86243295669556,0.0070678204208814
79.86692714691162,0.0074807226224459
79.91397333145142,0.0071631244175226
79.96017169952393,0.0069179711641815
79.96419095993042,0.0067096293287553
79.99662375450134,0.0064356384615537
80.00628399848938,0.0065283645470426
80.04781746864319,0.0065368347575295
80.08835577964783,0.0066198344675444
80.10671186447144,0.0064543129503537
80.13611078262329,0.0064922992819918
80.14040684700012,0.0065377914942651
80.18562078475952,0.0063784655016107
80.1945390701294,0.0063184037097559
80.2326807975769,0.0062396767241248
80.29000926017761,0.0063267809588963
80.32528257369995,0.0062712933038976
80.33243012428284,0.006271302288758
80.36952662467957,0.0062559373357746
80.4123260974884,0.0059052216017735
80.41592073440552,0.0058432464993602
80.45795273780823,0.0058452904690922
80.46656680107117,0.0057554719040734
80.50542974472046,0.0058596359903414
80.54977059364319,0.0055267226877769
80.58432650566101,0.0052133552696035
80.59621095657349,0.0049497713762012
80.6323754787445,0.004840476440702
80.69345808029175,0.0042846753117484
80.72505569458008,0.0035184179762611
80.73553657531738,0.0030656091221899
80.7801022529602,0.0028875728906369
80.82085609436035,0.0030127138626718
80.82327437400818,0.0028971576391858
80.86042284965515,0.0027750510474181
80.86663818359375,0.0026452103114245
80.90978026390076,0.0025678191071017
80.95756459236145,0.0024056959875284
80.96305537223816,0.0023534115664818
81.00224280357361,0.0019441261048591
81.04035806655884,0.0019832650366351
81.0874183177948,0.0020907036244963
81.09149837493896,0.0020841982916841
81.13000464439392,0.002086386994347
81.14291524887085,0.0022386835475422
81.18528938293457,0.0023856095574274
81.23432278633118,0.0025700344369932
81.24570107460022,0.0026369751443656
81.28048849105835,0.0027032587932463
81.28208041191101,0.0027600458742417
81.32453417778015,0.0027572884523356
81.32915925979614,0.0027723491995385
81.37330031394958,0.0027154874081822
81.37888836860657,0.0024580832210309
81.42122077941895,0.002315589629612
81.46144676208496,0.0021037610777391
81.47521662712097,0.0019716963905383
81.50801062583923,0.0019986891071487
81.52168536186218,0.0017100864197323
81.55445957183838,0.0017728884875969
81.60757493972778,0.0018356292577635
81.64158773422241,0.0018323725778537
81.65407299995422,0.0018264589011824
81.68333268165588,0.0019048929263727
81.73452544212341,0.0020322932118021
81.77517795562744,0.0022547345403045
81.77658128738403,0.0023379176017754
81.82142877578735,0.0024550325639224
81.83078813552856,0.0024997705788045
81.86365175247192,0.0026746764681581
81.87188386917114,0.0028132253830232
81.90454506874084,0.0028973910174397
81.9527735710144,0.002947367670282
81.95993113517761,0.0028379728069069
81.99870443344116,0.0028033536823124
82.00208044052124,0.002597620882208
82.04275631904602,0.0025473963412706
82.08630156517029,0.002247977003924
82.13215565681458,0.0022607990535663
82.13390517234802,0.0019434013931323
82.1794068813324,0.0019235259363617
82.22116088867188,0.0019167178046518
82.22527050971985,0.0019240824316537
82.26119685173035,0.0018962061792034
82.26809906959534,0.0019175995272184
82.31568145751953,0.0020284079010022
82.36192417144775,0.0023538185550826
82.3714029788971,0.004357904204797
82.40409111976624,0.0055494319974249
82.4199583530426,0.0064045604711264
82.45187449455261,0.0068362916716372
82.50248765945435,0.0073073162672555
82.54561471939087,0.0076280342814513
82.55250096321106,0.0079400674898988
82.58889055252075,0.0077020747617264
82.59224796295166,0.0070586782604452
82.6390974521637,0.0065577905767293
82.6854202747345,0.006298476506781
82.69678831100464,0.0064545923071999
82.73571944236755,0.0064575335501852
82.73758459091187,0.0065035548811272
82.77585816383362,0.0064993081394271
82.78875827789307,0.0066238593274087
82.82883739471436,0.0066072591000379
82.84550642967224,0.0066129703946379
82.87682700157166,0.0064360061788034
82.92378640174866,0.0064001335933389
82.93151688575745,0.0063546401418405
82.96844744682312,0.0068264597854745
82.97645235061646,0.0068749459061209
83.01275157928467,0.0064153815545659
83.0327525138855,0.0062837788249717
83.07177186012268,0.0062971076063115
83.11180663108826,0.0061424016318903
83.12414383888245,0.0060378803954447
83.15916347503662,0.0059968566411786
83.16266250610352,0.0055185706106338
83.20614624023438,0.0049557328474478
83.22101831436157,0.0046781844851972
83.2567183971405,0.0043154167132751
83.29995846748352,0.004093732528877
83.31100487709045,0.0037097644158044
83.3569688796997,0.0034552490907268
83.36720299720764,0.0027173542787707
83.39909148216248,0.0026379792465297
83.40267395973206,0.0027012778871403
83.44014143943787,0.0029213291217602
83.48761105537415,0.0028870654943219
83.53607559204102,0.0029345308924084
83.54237627983093,0.0025864037613713
83.57607364654541,0.0024590458001592
83.59523034095764,0.0024802188992161
83.6347324848175,0.0023805259637951
83.6792938709259,0.002182220884462
83.71957206726074,0.0021561409378947
83.72989225387573,0.0020902184486341
83.7630398273468,0.0040271926731032
83.77041625976562,0.004964843221968
83.81108260154724,0.0050541298943156
83.81747460365295,0.0051049684783092
83.85459518432617,0.0051310829341255
83.8614149093628,0.005191129565457
83.90873312950134,0.0051878722154821
83.95876717567444,0.005224400308893
83.96721744537354,0.0057796224009865
83.99626851081848,0.0048603413468372
84.0036244392395,0.0044736908264564
84.04223275184631,0.0044539990790896
84.05262660980225,0.004969596239426
84.09294366836548,0.0049559375034139
84.14229035377502,0.0055620689997925
84.18063521385193,0.0047353361766982
84.19442677497864,0.0046629352912793
84.22774147987366,0.0041308786010817
84.27446031570435,0.0039564740032533
84.28469157218933,0.0038105400681245
84.31793022155762,0.0031906546919395
84.32283091545105,0.0032222333140114
84.36964273452759,0.0031720042778372
84.41130518913269,0.0034277428795497
84.4242684841156,0.0036307928621483
84.45910811424255,0.0037269486737098
84.46880793571472,0.0038199920722415
84.50540161132812,0.0038422594064597
84.54009318351746,0.003947006216605
84.55618286132812,0.003968063975919
84.58406901359558,0.0040466777622268
84.59670352935791,0.002943158782717
84.63461065292358,0.0027032796371693
84.67531609535217,0.0026393032225004
84.72070026397705,0.0025498062098556
84.72589492797852,0.0024809457831821
84.74234366416931,0.0024248958556487
84.76945447921753,0.0024051337886103
84.78020215034485,0.0024191029818001
84.81986880302429,0.0023582430074779
84.86588096618652,0.0025976859564033
84.87764692306519,0.0044167511295784
84.91196727752686,0.005627542253155
84.91751408576965,0.0062651626280998
84.96830654144287,0.0065987768188675
85.01155185699463,0.0070505872307723
85.01882266998291,0.0072946283636642
85.05858087539673,0.007562110341627
85.0612621307373,0.0079259897353801
85.10486125946045,0.0075445050353384
85.10625004768372,0.0070263384330801
85.14873027801514,0.0069156983414649
85.20153021812439,0.0068709369160943
85.232182264328,0.0069852393045077
85.2490234375,0.0069145983203368
85.29335165023804,0.0070813762637532
85.30735540390015,0.006908769362202
85.33251929283142,0.0069076682376592
85.35829639434814,0.0069324053001358
85.40260171890259,0.0069388803089149
85.40642857551575,0.0065485473020593
85.44616293907166,0.0065983669357374
85.45873546600342,0.006623204284337
85.49524116516113,0.0066660962014156
85.53676557540894,0.0065194684894038
85.54472136497498,0.0067104018902441
85.5836431980133,0.0066822720130403
85.59420680999756,0.006496212336601
85.63463044166565,0.0064603862358736
85.68847966194153,0.0062232378141906
85.72437357902527,0.006330315680098
85.72600507736206,0.0063734193478466
85.76819705963135,0.0061664073890273
85.81215572357178,0.0059103338202095
85.8177433013916,0.0060324466072885
85.86082744598389,0.0055780320772754
85.86506414413452,0.0052398328533437
85.90619826316833,0.0050286579292133
85.90938305854797,0.0044922427776531
85.95287919044495,0.0041244626420513
86.00272417068481,0.0038580943070062
86.04801607131958,0.0032577976728722
86.05141401290894,0.0030763244752308
86.08937048912048,0.0022901428172294
86.10098338127136,0.0023402542552772
86.1390552520752,0.0022655046736999
86.14701914787292,0.0022817621136507
86.18277835845947,0.0021723089995047
86.18778705596924,0.0021648778387539
86.2280113697052,0.0019823840969776
86.2673568725586,0.0018835945784513
86.27768182754517,0.0019349457808616
86.3149926662445,0.0018096296756945
86.32527160644531,0.0017063920693211
86.35669136047363,0.0016644687687268
86.40836524963379,0.001732249705606
86.4496865272522,0.0016770818823432
86.46139192581177,0.0017871333613468
86.48982858657837,0.0018334178034675
86.50563764572144,0.0019136874653908
86.54522967338562,0.0018916840292482
86.54709506034851,0.0018465857777109
86.57610321044922,0.0019317398616544
86.58722114562988,0.0018803011073233
86.63211488723755,0.0018143874074081
86.67694592475891,0.001815101543712
86.6873185634613,0.0020618555929545
86.72699785232544,0.0019951620142749
86.73879885673523,0.0020307122324226
86.76831078529358,0.0020808703040245
86.78065156936646,0.002157159889628
86.82019138336182,0.0023027300913791
86.8656017780304,0.0023794369007505
86.88201427459717,0.0025008523013659
86.90941619873047,0.002557991592133
86.91710233688354,0.0024005375691438
86.95408844947815,0.0023685425184346
87.00018286705017,0.0023896686459503
87.00733661651611,0.0022911021733354
87.04805898666382,0.002261621375283
87.06091380119324,0.0020813847309215
87.09537649154663,0.001963075628141
87.13580465316772,0.0036584050276561
87.14503145217896,0.0049536516985096
87.18286752700806,0.0059029883867346
87.1972758769989,0.0066219876038663
87.22460556030273,0.0069562039356765
87.269216299057,0.0072976093786691
87.28446865081787,0.0075650306449763
87.31717920303345,0.0080177420280058
87.32101535797119,0.0081226408224454
87.356760263443,0.0075685230988059
87.40034294128418,0.0070811773351669
87.41385746002197,0.0066545990217244
87.44780278205872,0.0068704448543533
87.45345902442932,0.0068055198656373
87.50271725654602,0.0068035987356984
87.55170965194702,0.0067010748224585
87.58628273010254,0.0066431328358063
87.59991645812988,0.0064985191532683
87.63528347015381,0.0064777021339581
87.6763985157013,0.0063724909861913
87.68392992019653,0.0064305232618333
87.72009825706482,0.0062868179079489
87.73252415657043,0.0059378694380895
87.76553678512573,0.0060964637358435
87.78200507164001,0.0062152740350917
87.82290005683899,0.0062319147884346
87.86530995368958,0.0060205442678939
87.87706637382507,0.0060615285524062
87.92190718650818,0.0057074270777286
87.95735025405884,0.0055551861077639
87.96460604667664,0.0056784864303312
88.01018285751343,0.0052995297883425
88.05222415924072,0.0047555928933466
88.0600266456604,0.0046618717812959
88.09786820411682,0.0038486041130925
88.1077229976654,0.0034036415921344
88.14894366264343,0.0033049340771431
88.18850326538086,0.0032850973849075
88.19222378730774,0.0024867078880782
88.23853087425232,0.0024200344987995
88.23899030685425,0.0023783710304481
88.27919340133667,0.0022712675561772
88.28636074066162,0.002108710260865
88.33369016647339,0.0020491360901179
88.3816270828247,0.0018975429060308
88.41537046432495,0.0019431694282958
88.42830753326416,0.0019891091122636
88.47164416313171,0.002095199621773
88.51511478424072,0.0021068924529444
88.52950429916382,0.0021234620662985
88.56233525276184,0.0024286572942646
88.57461786270142,0.002540907108224
88.60661220550537,0.0026422690803018
88.64487504959106,0.0026677153828715
88.65579652786255,0.0027501267052013
88.6890435218811,0.0027645131755858
88.70137047767639,0.0036812824691436
88.73671793937683,0.0044022219463041
88.78647327423096,0.0053175953460703
88.8267982006073,0.0053126233657979
88.83417582511902,0.0052998487508276
88.874263048172,0.0052139604909759
88.91611313819885,0.0051800897288751
88.93225026130676,0.0051307864263841
88.96027779579163,0.0038809270855954
88.97057580947876,0.0026206206886744
89.00483846664429,0.0020854685593839
89.05364727973938,0.0021100458852378
89.07153296470642,0.0021383229123556
89.10845017433167,0.0022148468968981
89.14645981788635,0.0023360851887128
89.15150332450867,0.0024229199255729
89.19617366790771,0.0024712972195874
89.24608445167542,0.0024425150238831
89.2499189376831,0.0024262199897306
89.28420925140381,0.0024592749301342
89.2966365814209,0.0024297474860785
89.33015966415405,0.0023431176885399
89.37244129180908,0.0023364228464711
89.4180121421814,0.0022549844305335
89.43572330474854,0.0030471179397929
89.4595696926117,0.0050440191022854
89.47080516815186,0.006077904217231
89.50490093231201,0.0064909799383001
89.51512455940247,0.0070794026448656
89.55275630950928,0.0073607432657637
89.56202340126038,0.0076512378513291
89.60560417175293,0.0079719519409578
89.65060257911682,0.008317528598932
89.65912008285522,0.0077612951739767
89.69455647468567,0.0071991789753049
89.70305347442627,0.0067464955634036
89.73903155326843,0.0069244433955085
89.74956846237183,0.0069031150595185
89.78837895393372,0.0069200722499025
89.8326063156128,0.0069216354346521
89.8527991771698,0.0067784913745065
89.88043713569641,0.0066480844505029
89.89094567298889,0.0066690793488802
89.92890167236328,0.0067729862126465
89.98186230659485,0.0066865036737087
89.98626184463501,0.0065660082926871
90.02220010757446,0.0067131806967615
90.0358235836029,0.0066304146970727
90.06390595436096,0.0066969365077351
90.07444524765016,0.0066738512998545
90.12128186225893,0.0063697670114482
90.16808128356934,0.0062724252949565
90.1734447479248,0.0060343891415518
90.21204257011414,0.0055385976794083
90.25961136817932,0.005337268038981
90.27046346664427,0.0051240389891372
90.31276321411131,0.004766670206314
90.35767865180968,0.0044847608481254
90.36488938331604,0.0042622603893977
90.39526724815369,0.0039415776733533
90.40550661087036,0.0035941378871486
90.44379568099976,0.0034904894351918
90.44887804985046,0.0032375155613835
90.49102997779846,0.0026829429258331
90.54727172851562,0.0029571968688608
90.5556182861328,0.0029147251449643
90.59238290786745,0.002922293365009
90.59489631652832,0.0028650444512279
90.63087821006776,0.0027138891773168
90.67614936828612,0.0026221468361484
90.67745733261108,0.0024843048550335
90.71601295471191,0.0023941445229681
90.7319700717926,0.0023092054138731
90.76384401321413,0.0018762812500092
90.78129386901855,0.0017813225571586
90.82175612449646,0.0017811643903046
90.86412382125854,0.0017924852973586
90.87457370758057,0.0018042973645371
90.90837693214417,0.0018370714099014
90.91525530815125,0.0018889416791459
90.94935655593872,0.00185844813971
90.99685096740724,0.0018808404336021
91.00057768821716,0.0018711388899966
91.04066705703735,0.0018946900820574
91.0535922050476,0.0019483241169878
91.0897786617279,0.0019623004861881
91.12835311889648,0.0019655998949982
91.14025044441225,0.0020381902286053
91.17306232452393,0.0020236799951673
91.18115091323853,0.0019926186415992
91.21674752235413,0.0020991760499614
91.26139044761658,0.0020807890670991
91.27268147468568,0.0020286578947876
91.31052255630492,0.0020066796188467
91.33303689956664,0.0019424443596401
91.37042260169984,0.0018128650485075
91.4124722480774,0.0018353222706792
91.42520809173584,0.0017831246676742
91.45735025405884,0.0016931321584532
91.4700014591217,0.0016313702836858
91.50080847740172,0.0017080093308594
91.5122730731964,0.0020479533433617
91.5536732673645,0.0020273242383727
91.60367584228516,0.0021616479977945
91.6108751296997,0.0022095234421333
91.6465675830841,0.0022726812006019
91.65604186058044,0.0022359383796825
91.68495154380798,0.0022565081616642
91.6911768913269,0.0022739700745705
91.73194646835329,0.0022739700745705
91.7807960510254,0.0020389088842365
91.78414368629456,0.0019906099101616
91.82359480857848,0.0019830661489837
91.82730007171632,0.0018847309855401
91.87151837348938,0.0018682759073401
91.9125680923462,0.0018816191875375
91.92093420028688,0.0019479481126863
91.9587378501892,0.0019051887034232
91.96417236328124,0.002227783752235
92.00789856910706,0.0049063111188327
92.04495811462402,0.0060832603511489
92.0618658065796,0.0064711139673951
92.09349346160889,0.0068799354310709
92.09803986549376,0.0071697290001953
92.14026737213136,0.0073541186808745
92.18600225448608,0.007693635035767
92.19853591918944,0.007973845972871
92.239098072052,0.0073943182188349
92.24593758583067,0.0066672963815445
92.29003024101256,0.0062619240738857
92.3325252532959,0.0067461614751056
92.3812701702118,0.0069855216278178
92.38870525360107,0.0070098232008435
92.42388033866882,0.007043022950091
92.43756556510924,0.0073647457600129
92.46456027030943,0.0072251719076622
92.47643756866456,0.0069654401472351
92.51281428337096,0.0069713106303187
92.56029415130617,0.0066831994985958
92.56239151954652,0.0066938984340769
92.60625076293944,0.0064119288795733
92.6174705028534,0.0063978353383586
92.65744686126708,0.0060999841225012
92.69915199279784,0.0056561657770863
92.7414197921753,0.0057825659119561
92.7481565475464,0.0057329693891511
92.78948545455933,0.00552869003539
92.7972264289856,0.0053778750087786
