timestamp,emg
1746442099.66513,0.0060633221151311
1746442099.6938572,0.0056823826165603
1746442099.7225845,0.0055763052859963
1746442099.7513118,0.0054956422682102
1746442099.780039,0.005083788760151
1746442099.8087664,0.0051307041615928
1746442099.8374937,0.005096114442304
1746442099.866221,0.0050175789278593
1746442099.8949482,0.0052668135125096
1746442099.9236755,0.0053932147587029
1746442099.9524028,0.0053096634413318
1746442099.98113,0.005267767619359
1746442100.0098574,0.0051705592338172
1746442100.0385847,0.0051497847328481
1746442100.067312,0.005057819518873
1746442100.0960393,0.0051815963869138
1746442100.1247666,0.0049259579610592
1746442100.153494,0.0051985907175301
1746442100.1822212,0.0052604812299111
1746442100.2109485,0.0050630108610119
1746442100.2396758,0.0050102228188029
1746442100.268403,0.005157942230012
1746442100.2971303,0.0054548240805644
1746442100.3258576,0.0053765408694755
1746442100.354585,0.0053819778999757
1746442100.3833122,0.0052539337868851
1746442100.4120395,0.0056641295637727
1746442100.4407668,0.0058137440199285
1746442100.469494,0.005699937459586
1746442100.4982214,0.0052206702306512
1746442100.5269487,0.0053740147494569
1746442100.555676,0.0053437688969
1746442100.5844033,0.0053939593762798
1746442100.6131306,0.0050990149175439
1746442100.641858,0.0051393875077063
1746442100.6705852,0.0050864694601973
1746442100.6993124,0.0054426916920122
1746442100.7280395,0.0054403323198676
1746442100.756767,0.0054878602136129
1746442100.7854943,0.0054641777093758
1746442100.8142216,0.0055351592016084
1746442100.842949,0.0053690374841721
1746442100.8716762,0.0055824912978757
1746442100.9004035,0.005480994069555
1746442100.9291308,0.0053995716666619
1746442100.957858,0.0056891124271678
1746442100.9865854,0.0055219390463965
1746442101.015313,0.0053689526182951
1746442101.04404,0.0057487083314586
1746442101.0727673,0.0056429305556083
1746442101.1014946,0.005332780576434
1746442101.1302218,0.0054934866513773
1746442101.1589491,0.0053162862882566
1746442101.1876764,0.005348122893678
1746442101.2164035,0.0055265151391875
1746442101.245131,0.0053166376793869
1746442101.2738583,0.005145681964492
1746442101.3025856,0.005206429513213
1746442101.331313,0.0052393415828165
1746442101.3600402,0.0049174847367767
1746442101.3887675,0.0053085401088881
1746442101.4174948,0.0051107920172459
1746442101.446222,0.0047503817988433
1746442101.4749494,0.0049847990657689
1746442101.503677,0.0053994029183403
1746442101.532404,0.0052042329581873
1746442101.5611312,0.0053293663798269
1746442101.5898583,0.0049811990589538
1746442101.6185858,0.0053685807494287
1746442101.647313,0.005539865159698
1746442101.6760404,0.0054056040029459
1746442101.7047677,0.0051043203984342
1746442101.733495,0.0052458873933408
1746442101.7622223,0.0053762266347082
1746442101.7909496,0.0056918421485761
1746442101.8196769,0.0054416611831094
1746442101.8484042,0.0055024969064395
1746442101.8771317,0.0055063328720298
1746442101.9058588,0.0053171995201484
1746442101.934586,0.0056141222952002
1746442101.963313,0.0056209154469762
1746442101.9920406,0.0056209873084408
1746442102.020768,0.0056394548050599
1746442102.0494952,0.0054630383722997
1746442102.0782225,0.0057130113882195
1746442102.1069498,0.0059042418457751
1746442102.135677,0.0054709618690207
1746442102.1644044,0.0054329565122348
1746442102.1931317,0.005388070926319
1746442102.221859,0.0054007060901266
1746442102.2505865,0.0053086782782116
1746442102.2793136,0.0051352887139488
1746442102.3080409,0.0050980096845233
1746442102.3367682,0.0052838680792032
1746442102.3654954,0.0050443334989706
1746442102.3942227,0.0049895584980822
1746442102.42295,0.0049711617488748
1746442102.451677,0.0054355539561934
1746442102.4804046,0.005398411435795
1746442102.509132,0.0053138929842057
1746442102.5378592,0.0054473135422874
1746442102.5665865,0.0056084811972438
1746442102.5953138,0.0054655396741899
1746442102.624041,0.0056414933646969
1746442102.6527684,0.0053443472369193
1746442102.6814957,0.005369220711764
1746442102.710223,0.0051835084440071
1746442102.7389505,0.0049594942051648
1746442102.7676775,0.0051391805732454
1746442102.7964048,0.0051587983354047
1746442102.825132,0.0050200339271448
1746442102.8538594,0.0049376491161226
1746442102.8825867,0.0049035846990373
1746442102.911314,0.004947515995138
1746442102.9400413,0.0050831470692138
1746442102.9687686,0.0046976925313816
1746442102.997496,0.0049414270278846
1746442103.0262232,0.0048411064002246
1746442103.0549505,0.0048060859275264
1746442103.0836778,0.0048099068949038
1746442103.112405,0.0049853544175761
1746442103.1411324,0.0047934508183013
1746442103.1698596,0.0047924388924528
1746442103.198587,0.0049754659508344
1746442103.2273142,0.0051911737271825
1746442103.2560415,0.0052698509308176
1746442103.2847688,0.0051067656054792
1746442103.313496,0.0050936348197756
1746442103.3422234,0.0051785242834367
1746442103.3709507,0.0052134611990295
1746442103.399678,0.0050483847372891
1746442103.4284053,0.0048764897863598
1746442103.4571326,0.0049626923746533
1746442103.48586,0.0051446677053256
1746442103.5145872,0.0052612946442944
1746442103.5433145,0.005318019006291
1746442103.5720415,0.0053498591594612
1746442103.600769,0.0052769177488809
1746442103.6294963,0.0055425274337763
1746442103.6582236,0.0054605365876844
1746442103.686951,0.0054460403235753
1746442103.7156782,0.0051637076139266
1746442103.7444055,0.0053407103309182
1746442103.7731328,0.0055741518669641
1746442103.80186,0.0055051478205304
1746442103.8305874,0.0052311707478807
1746442103.859315,0.0053651536636075
1746442103.888042,0.0052559424905833
1746442103.9167693,0.0055864245883972
1746442103.9454966,0.0053020201942449
1746442103.974224,0.005059433929115
1746442104.0029511,0.0050230551202885
1746442104.0316784,0.0050773843104436
1746442104.0604055,0.0052575005412165
1746442104.089133,0.0051736418722281
1746442104.1178603,0.0052606417909807
1746442104.1465876,0.0052352225980843
1746442104.175315,0.0053618453214248
1746442104.2040422,0.0054341326729742
1746442104.2327695,0.0060254768287431
1746442104.2614968,0.0057719043755031
1746442104.290224,0.0060755408104531
1746442104.3189514,0.00622926122165
1746442104.347679,0.0075792003106758
1746442104.376406,0.0089081887928234
1746442104.4051332,0.0089843828662403
1746442104.4338603,0.0104104766917302
1746442104.4625878,0.015752437931816
1746442104.4913151,0.0175325578696045
1746442104.5200424,0.020185327193004
1746442104.5487697,0.0206299230307639
1746442104.577497,0.0208008684352099
1746442104.6062243,0.0228030443268122
1746442104.6349516,0.0229459096604938
1746442104.663679,0.0205261698014516
1746442104.6924062,0.0203656018894925
1746442104.7211337,0.0186350180082086
1746442104.7498608,0.0187109199764927
1746442104.778588,0.0185832198433412
1746442104.807315,0.0180308969974003
1746442104.8360426,0.0171627033905896
1746442104.86477,0.0168927282808676
1746442104.8934972,0.0154558616787778
1746442104.9222243,0.0142407143447268
1746442104.9509518,0.0129968257541545
1746442104.979679,0.0124415052702701
1746442105.0084064,0.0098075603984762
1746442105.0371337,0.0086129950496329
1746442105.065861,0.0072423912253685
1746442105.0945885,0.0069641941799791
1746442105.1233156,0.0068006418513855
1746442105.1520429,0.0070887994493111
1746442105.1807702,0.0066508637472542
1746442105.2094977,0.0064984445506043
1746442105.2382247,0.0063443627011191
1746442105.266952,0.0066332205600285
1746442105.295679,0.006844966913522
1746442105.3244066,0.0069533577133777
1746442105.353134,0.0070751940305132
1746442105.3818612,0.0069925560035678
1746442105.4105885,0.0067358524812704
1746442105.4393158,0.0066459192174072
1746442105.468043,0.0061747273505884
1746442105.4967704,0.0064018337496666
1746442105.5254977,0.0063077323765874
1746442105.554225,0.0061120218737509
1746442105.5829525,0.0058592657026314
1746442105.6116796,0.0059196207068812
1746442105.6404068,0.0064176560909648
1746442105.669134,0.0065642668348959
1746442105.6978614,0.0062153899445253
1746442105.7265887,0.0061267807426516
1746442105.755316,0.0058281176677927
1746442105.7840433,0.0062091566399085
1746442105.8127706,0.005868241349509
1746442105.841498,0.0059580133200958
1746442105.8702252,0.0059150434140433
1746442105.8989525,0.005769024162986
1746442105.9276798,0.0061011559513489
1746442105.956407,0.006507073263004
1746442105.9851344,0.006682399041883
1746442106.0138617,0.0065697540674847
1746442106.042589,0.0063480144883412
1746442106.0713162,0.0066673329219441
1746442106.1000435,0.0082983654278496
1746442106.1287708,0.008488923981861
1746442106.157498,0.0087991394112725
1746442106.1862254,0.0093257258980043
1746442106.2149527,0.0096721841920434
1746442106.24368,0.0103721332983682
1746442106.2724073,0.0098499269627735
1746442106.3011346,0.0091571915469738
1746442106.329862,0.0088872930683526
1746442106.3585892,0.008360202564839
1746442106.3873165,0.007833745737568
1746442106.4160438,0.0077480422376034
1746442106.444771,0.0066054232287037
1746442106.4734983,0.0063152689623221
1746442106.5022256,0.0065307140810633
1746442106.530953,0.0067440653163191
1746442106.5596802,0.0069833401973543
1746442106.5884075,0.0063449150451109
1746442106.6171348,0.0065437934016412
1746442106.645862,0.0070577743722605
1746442106.6745894,0.0073144525769102
1746442106.7033167,0.0072621608343779
1746442106.732044,0.007080065458278
1746442106.7607713,0.0069142308049811
1746442106.7894986,0.0070893981135433
1746442106.818226,0.0063187550079251
1746442106.8469532,0.0059976334896159
1746442106.8756804,0.0058762823289712
1746442106.9044075,0.0058829827512478
1746442106.933135,0.00580595699189
1746442106.9618623,0.0058179098520558
1746442106.9905896,0.0057835101452178
1746442107.019317,0.0058235670050747
1746442107.0480442,0.005810012294181
1746442107.0767715,0.0057140409435876
1746442107.1054988,0.005807502989467
1746442107.134226,0.0056281149473891
1746442107.1629534,0.0054754082914981
1746442107.191681,0.0062371984316195
1746442107.220408,0.0062366066955221
1746442107.2491353,0.0063283129032711
1746442107.2778623,0.0060561205564241
1746442107.3065898,0.0060185981526643
1746442107.3353171,0.0060648715341205
1746442107.3640444,0.0060291823119601
1746442107.3927715,0.0053666028010283
1746442107.421499,0.0056463584499669
1746442107.4502263,0.0055817723068516
1746442107.4789536,0.0057861194388903
1746442107.507681,0.0055533681119701
1746442107.5364082,0.005782042242678
1746442107.5651357,0.005825204680136
1746442107.5938628,0.0054368866854671
1746442107.62259,0.0051961556648431
1746442107.6513174,0.0052227678938313
1746442107.680045,0.0057110286878423
1746442107.708772,0.0058639642486579
1746442107.7374992,0.0057345566368939
1746442107.7662263,0.0056240744279922
1746442107.7949538,0.0057764155887841
1746442107.823681,0.0058693272380817
1746442107.8524084,0.0057827275183636
1746442107.8811357,0.0054188778156863
1746442107.909863,0.005432075670716
1746442107.9385903,0.0054575958244613
1746442107.9673176,0.0062393545309065
1746442107.9960449,0.0080970647189083
1746442108.0247722,0.0100452434272035
1746442108.0534997,0.0144863785053213
1746442108.0822268,0.0178869624229978
1746442108.110954,0.0199674152772052
1746442108.139681,0.022070591785786
1746442108.1684086,0.0232533840595839
1746442108.197136,0.0235931500531902
1746442108.2258632,0.023842251892035
1746442108.2545905,0.0231678264132448
1746442108.2833178,0.0219235796752789
1746442108.312045,0.0232162495199612
1746442108.3407724,0.0228757510813933
1746442108.3694997,0.0219760786772146
1746442108.398227,0.0216363864848763
1746442108.4269545,0.020431327243622
1746442108.4556816,0.0195912255146731
1746442108.4844089,0.0183745958101857
1746442108.513136,0.0137120130637102
1746442108.5418634,0.0122093178313472
1746442108.5705907,0.0106331969796806
1746442108.599318,0.0101456203439895
1746442108.628045,0.0098015643952486
1746442108.6567726,0.0081306550180543
1746442108.6855,0.0078050217276314
1746442108.7142272,0.0081014548273622
1746442108.7429545,0.0067476043977918
1746442108.7716818,0.0067045569956816
1746442108.800409,0.0065672609089326
1746442108.8291364,0.0065264539456804
1746442108.8578637,0.0066502906896423
1746442108.886591,0.0065279948276341
1746442108.9153185,0.0064468476268105
1746442108.9440455,0.0066144860402041
1746442108.9727728,0.0066449978265192
1746442109.0015,0.0066597877250772
1746442109.0302274,0.0069016917924662
1746442109.0589547,0.0066257967000448
1746442109.087682,0.006177714339421
1746442109.1164093,0.0060390096711053
1746442109.1451366,0.0060625056349771
1746442109.173864,0.0060232549306962
1746442109.2025912,0.0058423754455135
1746442109.2313185,0.0058480605976631
1746442109.2600458,0.0060806010406593
1746442109.288773,0.0061195783805442
1746442109.3175004,0.0059072626125834
1746442109.3462276,0.0058814493326083
1746442109.374955,0.0057654265571109
1746442109.4036822,0.0058476080360897
1746442109.4324095,0.0058595202780948
1746442109.4611368,0.0055555294451884
1746442109.489864,0.0055731115047574
1746442109.5185914,0.0056754209448398
1746442109.5473187,0.0057167478029727
1746442109.576046,0.0054323807213554
1746442109.6047733,0.0054548086043071
1746442109.6335006,0.0054367666133463
1746442109.662228,0.0052873047656712
1746442109.6909552,0.0052315269317106
1746442109.7196825,0.0053463347703746
1746442109.7484095,0.0055044699092768
1746442109.777137,0.0055773782493541
1746442109.8058643,0.005327852234761
1746442109.8345916,0.0052723477442899
1746442109.863319,0.005252995601403
1746442109.8920462,0.005375545018116
1746442109.9207735,0.0052953537704559
1746442109.9495008,0.0050898175883224
1746442109.978228,0.0051944878341542
1746442110.0069554,0.0054022340893131
1746442110.035683,0.0053552847810843
1746442110.06441,0.0053184712368708
1746442110.0931373,0.0051983724701245
1746442110.1218646,0.005442413733428
1746442110.150592,0.0054472913427778
1746442110.1793191,0.0053884085488521
1746442110.2080464,0.0052484330324459
1746442110.2367735,0.0052451072328724
1746442110.265501,0.0055607297040702
1746442110.2942283,0.0055205547354089
1746442110.3229556,0.0057505498436714
1746442110.351683,0.0057076150018752
1746442110.3804102,0.005719501197873
1746442110.4091375,0.0058031181204023
1746442110.4378648,0.0057990276718803
1746442110.466592,0.0058128182266132
1746442110.4953194,0.0058310176400643
1746442110.524047,0.0052632991918459
1746442110.552774,0.0054425432844557
1746442110.5815012,0.005359610646332
1746442110.6102283,0.005223205584951
1746442110.6389558,0.0050936010308995
1746442110.6676831,0.0050375535534223
1746442110.6964104,0.0050835176149767
1746442110.7251377,0.005084064352791
1746442110.753865,0.0048741371799733
1746442110.7825923,0.0049704274013148
1746442110.8113196,0.0053696640800619
1746442110.840047,0.0052673986981617
1746442110.8687742,0.0052238067600928
1746442110.8975017,0.0053806957746787
1746442110.9262288,0.005265509137712
1746442110.954956,0.0054863828708381
1746442110.983683,0.0053492679258863
1746442111.0124106,0.0051288861550254
1746442111.041138,0.0053246724120877
1746442111.0698652,0.0052219166394766
1746442111.0985923,0.00509605123666
1746442111.1273198,0.0056136041736926
1746442111.156047,0.0053855918498039
1746442111.1847744,0.00543875927419
1746442111.2135017,0.0056816319590725
1746442111.242229,0.005580546344348
1746442111.2709565,0.005648170328072
1746442111.2996836,0.0054939994950392
1746442111.3284109,0.0052185335964391
1746442111.3571382,0.005527877080101
1746442111.3858654,0.0054793535410752
1746442111.4145927,0.0053727568494386
1746442111.44332,0.0052886145030577
1746442111.472047,0.0054236491712525
1746442111.5007746,0.0053965206055209
1746442111.529502,0.0052912515225222
1746442111.5582292,0.0054679695704335
1746442111.5869565,0.0055976502524496
1746442111.6156838,0.0053699476302008
1746442111.644411,0.0053764931326642
1746442111.6731384,0.0053499045704172
1746442111.7018657,0.0054775075429923
1746442111.730593,0.0056156734563691
1746442111.7593205,0.0052626760782888
1746442111.7880476,0.0051914171641318
1746442111.8167748,0.0053924378659979
1746442111.845502,0.0055499102522972
1746442111.8742294,0.0054204287384224
1746442111.9029567,0.0052491377651381
1746442111.931684,0.0051566611828652
1746442111.9604113,0.007301401185451
1746442111.9891386,0.0129628132360864
1746442112.017866,0.0156813635094645
1746442112.0465932,0.0171149441930046
1746442112.0753205,0.0196769765514707
1746442112.1040478,0.0206905074284652
1746442112.132775,0.021424045416187
1746442112.1615024,0.0216493891024268
1746442112.1902297,0.0209041536901908
1746442112.218957,0.0203374677072129
1746442112.2476842,0.022787569257593
1746442112.2764115,0.0210469963942597
1746442112.3051388,0.0216757709445361
1746442112.333866,0.0224354168928546
1746442112.3625934,0.0222834739375215
1746442112.3913207,0.0210810424993427
1746442112.420048,0.0195301636632765
1746442112.4487753,0.0164272368983719
1746442112.4775026,0.0161999849598889
1746442112.50623,0.0141373090413004
1746442112.5349572,0.0136399197809711
1746442112.5636845,0.0127170416016876
1746442112.5924118,0.0119001349380342
1746442112.621139,0.0117723222278693
1746442112.6498663,0.0113638190594349
1746442112.6785936,0.0108477196484484
1746442112.707321,0.01024536835999
1746442112.7360482,0.0088170817848856
1746442112.7647755,0.0086522287848302
1746442112.7935028,0.0081374061164146
1746442112.82223,0.0074930864332302
1746442112.8509574,0.0068381275081969
1746442112.8796847,0.0065736298473704
1746442112.908412,0.0065028968510937
1746442112.9371393,0.0069664244340754
1746442112.9658666,0.0067012713987927
1746442112.994594,0.0067032974024718
1746442113.0233212,0.0062965804083619
1746442113.0520484,0.0062908235858936
1746442113.0807755,0.0065834183655921
1746442113.109503,0.0064495294513849
1746442113.1382303,0.0058421933823655
1746442113.1669576,0.0059921869593661
1746442113.195685,0.0058601710018286
1746442113.2244122,0.005838908291916
1746442113.2531395,0.0061609455839447
1746442113.2818668,0.0057636293175605
1746442113.310594,0.0057694059782584
1746442113.3393214,0.005764733825654
1746442113.368049,0.0056721684499861
1746442113.396776,0.0054458766641226
1746442113.4255033,0.0056084220124454
1746442113.4542303,0.0051549541307087
1746442113.4829578,0.0053345993604831
1746442113.5116851,0.0052522600934668
1746442113.5404124,0.0047866605778535
1746442113.5691397,0.0050879071008173
1746442113.597867,0.0053546346997401
1746442113.6265943,0.005149382961191
1746442113.6553216,0.0053139785907806
1746442113.684049,0.0054044530066643
1746442113.7127762,0.0054893069204225
1746442113.7415037,0.0056647305459083
1746442113.7702308,0.0057874572711647
1746442113.798958,0.0055071157422315
1746442113.8276854,0.0055672181288147
1746442113.8564126,0.005802693450482
1746442113.88514,0.0056234166011727
1746442113.9138672,0.0056877701714124
1746442113.9425943,0.0055760189725815
1746442113.9713218,0.0053380837498348
1746442114.000049,0.0055719792038041
1746442114.0287764,0.0056135001203898
1746442114.0575037,0.0053742098405321
1746442114.086231,0.0053823833154045
1746442114.1149583,0.0055115325588064
1746442114.1436856,0.0057032715034891
1746442114.1724129,0.0057025694313347
1746442114.2011402,0.0056772052184008
1746442114.2298677,0.0056453441012389
1746442114.2585948,0.0056247746998874
1746442114.287322,0.0057055048930445
1746442114.316049,0.0054997375423623
1746442114.3447766,0.0055793874381936
1746442114.373504,0.0053157715109488
1746442114.4022312,0.0053385417611153
1746442114.4309585,0.0055023214402166
1746442114.4596858,0.0053491639966242
1746442114.488413,0.0053441423786748
1746442114.5171404,0.0053733306267041
1746442114.5458677,0.0053942294508429
1746442114.574595,0.0055634862717626
1746442114.6033225,0.0054610363961536
1746442114.6320496,0.0052902136082684
1746442114.6607769,0.0054745457528023
1746442114.689504,0.0054986284885544
1746442114.7182314,0.0054790797849373
1746442114.7469587,0.0053977462955342
1746442114.775686,0.0051545082918204
1746442114.8044133,0.0055738699112369
1746442114.8331406,0.0056200133303031
1746442114.861868,0.0054749302833833
1746442114.8905952,0.0054496941109098
1746442114.9193225,0.005644196286413
1746442114.9480498,0.0053884204698016
1746442114.976777,0.00551669264479
1746442115.0055044,0.0053321358316768
1746442115.0342317,0.0054073352461265
1746442115.062959,0.0053473894139462
1746442115.0916862,0.0055176860758464
1746442115.1204135,0.005487572781536
1746442115.1491408,0.0056733206000187
1746442115.177868,0.0056284835827968
1746442115.2065954,0.0057703485376852
1746442115.2353227,0.0057098719437017
1746442115.26405,0.0060712548925761
1746442115.2927773,0.0058043320972521
1746442115.3215046,0.0059852983777005
1746442115.350232,0.0057423791038543
1746442115.3789592,0.0057876700962281
1746442115.4076865,0.0057971436510189
1746442115.4364138,0.0058434106317207
1746442115.465141,0.0056430949222528
1746442115.4938684,0.0054849591722708
1746442115.5225956,0.0054246736613574
1746442115.551323,0.005541455260569
1746442115.5800502,0.0056544029643307
1746442115.6087775,0.0054544294572019
1746442115.6375048,0.0053262989538435
1746442115.666232,0.0051793277642873
1746442115.6949594,0.0058043916088463
1746442115.7236867,0.0056116771597651
1746442115.752414,0.005655095799988
1746442115.7811413,0.0053761376086393
1746442115.8098686,0.0055491273482513
1746442115.838596,0.0056554129693065
1746442115.8673232,0.0057995349062055
1746442115.8960505,0.0054825843595859
1746442115.9247775,0.0053315736156338
1746442115.953505,0.0056478436348195
1746442115.9822323,0.0057221656685342
1746442116.0109596,0.0058167962336597
1746442116.039687,0.0076032181834326
1746442116.0684142,0.0110503233757676
1746442116.0971415,0.0121127253442364
1746442116.1258688,0.0141200856334398
1746442116.154596,0.016890151682799
1746442116.1833234,0.0173631627774542
1746442116.212051,0.0177537519415127
1746442116.240778,0.0190178105261962
1746442116.2695053,0.0177094316108328
1746442116.2982326,0.0173013572008121
1746442116.3269598,0.0166011040584852
1746442116.3556871,0.0168682386446272
1746442116.3844144,0.0189014313041711
1746442116.4131415,0.0187791453513146
1746442116.441869,0.0172642267849424
1746442116.4705963,0.0180347518082938
1746442116.4993236,0.018148645723235
1746442116.528051,0.0178187827369262
1746442116.5567782,0.0154666954214751
1746442116.5855055,0.013445024488586
1746442116.6142328,0.0138674070731654
1746442116.64296,0.0133408090306383
1746442116.6716874,0.0120402296637604
1746442116.700415,0.0117402218137855
1746442116.729142,0.0114778716229481
1746442116.7578692,0.0107943360891438
1746442116.7865963,0.0094156880745556
1746442116.8153238,0.0083268599098332
1746442116.8440511,0.0083493466754479
1746442116.8727784,0.0077322701632962
1746442116.9015057,0.006896734255826
1746442116.930233,0.00693059184634
1746442116.9589603,0.0072578275179177
1746442116.9876876,0.0070549358067697
1746442117.0164149,0.007111129528531
1746442117.0451422,0.0069988161834404
1746442117.0738697,0.0071660341499565
1746442117.1025968,0.0072507482600325
1746442117.131324,0.0071909286549119
1746442117.160051,0.0067513375624768
1746442117.1887786,0.0067585031074573
1746442117.217506,0.0069059497833528
1746442117.2462332,0.0069681347846315
1746442117.2749605,0.0073489705897594
1746442117.3036878,0.0072461204288383
1746442117.332415,0.0066039448850752
1746442117.3611424,0.0065824728192898
1746442117.3898697,0.0066526628092684
1746442117.418597,0.006215742914199
1746442117.4473245,0.0059840463567902
1746442117.4760516,0.0056437771880519
1746442117.5047789,0.006142759372069
1746442117.5335062,0.0062351859628223
1746442117.5622334,0.006288109747232
1746442117.5909607,0.0063054457325419
1746442117.619688,0.0063553646567623
1746442117.648415,0.0064002146496211
1746442117.6771426,0.0060320509948657
1746442117.70587,0.0057559236768046
1746442117.7345972,0.0058369228236272
1746442117.7633245,0.005650805525602
1746442117.7920518,0.0057097666474809
1746442117.820779,0.005772154869554
1746442117.8495064,0.0056540336679785
1746442117.8782337,0.0059630583252327
1746442117.906961,0.0056028302361621
1746442117.9356885,0.0057303068648925
1746442117.9644156,0.0059261189893486
1746442117.9931428,0.0058427263454213
1746442118.02187,0.0058974415457541
1746442118.0505974,0.0058087566956693
1746442118.0793247,0.0058014309870586
1746442118.108052,0.0059873509591804
1746442118.1367793,0.0055742160187833
1746442118.1655066,0.0055800031465506
1746442118.194234,0.0058582101842689
1746442118.2229612,0.0058907137018519
1746442118.2516885,0.0062880266051463
1746442118.2804158,0.0061268857267743
1746442118.309143,0.0061650836235097
1746442118.3378704,0.0063026720068334
1746442118.3665977,0.0061330412751947
1746442118.395325,0.0060443277714884
1746442118.4240522,0.005788597877052
1746442118.4527795,0.0055301016886296
1746442118.4815068,0.0052877225355416
1746442118.510234,0.0051792255601648
1746442118.5389614,0.005055913865444
1746442118.5676887,0.0051750151665105
1746442118.596416,0.0051667345686981
1746442118.6251433,0.0051939259987648
1746442118.6538706,0.0050842947609272
1746442118.682598,0.0052530318647963
1746442118.7113252,0.0052039133598645
1746442118.7400525,0.0053372523206195
1746442118.7687798,0.0053309508214358
1746442118.797507,0.0051006496477236
1746442118.8262343,0.0049382908795344
1746442118.8549616,0.0052293827723686
1746442118.883689,0.0049463127662311
1746442118.9124162,0.0049841732725761
1746442118.9411435,0.0050111280050029
1746442118.9698708,0.0049689637435437
1746442118.998598,0.005205896595923
1746442119.0273254,0.0052212916244911
1746442119.0560527,0.0048980578632148
1746442119.08478,0.0054994055849366
1746442119.1135073,0.0054312136069452
1746442119.1422346,0.0053961288704982
1746442119.170962,0.0053558588600966
1746442119.1996891,0.0054357306250618
1746442119.2284164,0.0055810249294837
1746442119.2571435,0.0056605779574862
1746442119.285871,0.0052142085460077
1746442119.3145983,0.005484876596367
1746442119.3433256,0.0052901844373542
1746442119.372053,0.005384867030367
1746442119.4007802,0.0050872953991762
1746442119.4295075,0.0049013966798674
1746442119.4582348,0.0051195272810744
1746442119.486962,0.0052156559811293
1746442119.5156894,0.0050361568414168
1746442119.544417,0.0051570492593532
1746442119.573144,0.0051737590353383
1746442119.6018713,0.0050503730700409
1746442119.6305983,0.0053402812037304
1746442119.6593258,0.0051559466352834
1746442119.6880531,0.0052519158770817
1746442119.7167804,0.0051731974135488
1746442119.7455077,0.0051893033850355
1746442119.774235,0.0051491115122038
1746442119.8029623,0.0050907163245987
1746442119.8316896,0.0048598329323021
1746442119.860417,0.005342362157749
1746442119.8891442,0.0050538974565864
1746442119.9178717,0.0051343001850087
1746442119.9465988,0.0054719024999415
1746442119.975326,0.0055505127895153
1746442120.0040534,0.0062044555272906
1746442120.0327806,0.0090813241836374
1746442120.061508,0.0102665552606745
1746442120.0902352,0.0118797953990705
1746442120.1189623,0.0145852968204653
1746442120.1476898,0.0157220825267262
1746442120.176417,0.0164176927028665
1746442120.2051444,0.0175380009825087
1746442120.2338717,0.0174372027129714
1746442120.262599,0.017986100349177
1746442120.2913263,0.0174045140588048
1746442120.3200536,0.0160652514917983
1746442120.3487809,0.016943868060921
1746442120.3775082,0.0171509220281203
1746442120.4062357,0.016545031716004
1746442120.4349627,0.0160301293172628
1746442120.46369,0.0153799803451722
1746442120.492417,0.0151345746434069
1746442120.5211446,0.0140933401391483
1746442120.549872,0.0118362934062865
1746442120.5785992,0.0114946732154516
1746442120.6073265,0.0106295886180958
1746442120.6360538,0.0080951153471399
1746442120.664781,0.0086505854877466
1746442120.6935084,0.0083962277627442
1746442120.7222357,0.0082995678155213
1746442120.750963,0.008349944731874
1746442120.7796905,0.0074822427541805
1746442120.8084176,0.0073730233962668
1746442120.8371449,0.0075831415567466
1746442120.865872,0.0063482945793576
1746442120.8945994,0.0063988125438965
1746442120.9233267,0.0061371024838064
1746442120.952054,0.0056790420121115
1746442120.9807813,0.0055626399647904
1746442121.0095086,0.0056652777120617
1746442121.038236,0.0058658610947287
1746442121.0669632,0.0058931306797469
1746442121.0956905,0.0061640859628757
1746442121.1244178,0.0065129040929698
1746442121.153145,0.0064350247071975
1746442121.1818724,0.0069286885614984
1746442121.2105997,0.0066984151978419
1746442121.239327,0.0064783765317461
1746442121.2680542,0.0063782134703001
1746442121.2967815,0.006295333932715
1746442121.3255088,0.0061403140956644
1746442121.354236,0.0061304691405134
1746442121.3829634,0.0055963902761012
1746442121.4116907,0.0057185556162224
1746442121.440418,0.0057329681394229
1746442121.4691453,0.0056832433129846
1746442121.4978726,0.0054857769899126
1746442121.5266,0.0054761620162278
1746442121.5553272,0.0055136635832337
1746442121.5840545,0.0057894049679609
1746442121.6127818,0.0056631464803852
1746442121.641509,0.0059012140717899
1746442121.6702363,0.0057884408532839
1746442121.6989636,0.0057870378694315
1746442121.727691,0.0061932600245656
1746442121.7564182,0.0061186327561606
1746442121.7851455,0.0060778240712629
1746442121.8138728,0.0061211325722628
1746442121.8426,0.0057939540443748
1746442121.8713274,0.0060260676837749
1746442121.9000547,0.0062220663810477
1746442121.928782,0.005760599584484
1746442121.9575093,0.0059446712003055
1746442121.9862366,0.0055485105812194
1746442122.014964,0.0054683092887973
1746442122.0436912,0.0058577198639282
1746442122.0724185,0.00561798575328
1746442122.1011455,0.0060015640773486
1746442122.129873,0.0059902897172303
1746442122.1586003,0.006107320052733
1746442122.1873276,0.006034906261103
1746442122.216055,0.0061057846335157
1746442122.2447822,0.0059559980538868
1746442122.2735095,0.0062272439042383
1746442122.3022368,0.0056425830021794
1746442122.330964,0.0054866979106354
1746442122.3596914,0.0054556354424141
1746442122.388419,0.0055126987735625
1746442122.417146,0.0055007243527621
1746442122.4458733,0.0055791466781062
1746442122.4746006,0.0054321354214562
1746442122.5033278,0.0053204921414064
1746442122.5320551,0.0054214054703753
1746442122.5607824,0.005519781913462
1746442122.5895095,0.0056408751690945
1746442122.618237,0.005867731256073
1746442122.6469643,0.0055296548322145
1746442122.6756916,0.0053379119230868
1746442122.704419,0.0056558477099365
1746442122.7331462,0.0056072663689438
1746442122.7618735,0.0054037807008929
1746442122.7906008,0.0054125557062834
1746442122.819328,0.0049759694765913
1746442122.8480554,0.0051709300266022
1746442122.876783,0.0053122516633601
1746442122.90551,0.0051411308780721
1746442122.9342372,0.0053991198480173
1746442122.9629643,0.0054005034367329
1746442122.9916918,0.0054185019505528
1746442123.0204191,0.0058023637262457
1746442123.0491464,0.0057185512852023
1746442123.0778737,0.0057687155573945
1746442123.106601,0.0057073052592341
1746442123.1353283,0.0053246780632696
1746442123.1640556,0.0054170354686034
1746442123.1927829,0.005532176213713
1746442123.2215102,0.0052845495707883
1746442123.2502377,0.0055177310235698
1746442123.2789648,0.0054041936361075
1746442123.307692,0.0053316104981487
1746442123.336419,0.0054059352642797
1746442123.3651466,0.0054080361856764
1746442123.393874,0.0055145858466448
1746442123.4226012,0.0055121375261403
1746442123.4513285,0.0055347585111195
1746442123.4800558,0.0055131196506649
1746442123.508783,0.0057676452917162
1746442123.5375104,0.0056761613052223
1746442123.5662377,0.0057243236183988
1746442123.594965,0.0055475869492429
1746442123.6236925,0.0054368104167074
1746442123.6524196,0.0054181212715527
1746442123.6811469,0.0055451546251588
1746442123.7098742,0.0055250391543558
1746442123.7386014,0.0054234009376922
1746442123.7673287,0.005186008305869
1746442123.796056,0.0055273244753629
1746442123.824783,0.0055287172135266
1746442123.8535106,0.0052230933686923
1746442123.882238,0.0053586688478328
1746442123.9109652,0.0053204887721182
1746442123.9396925,0.0055014603463745
1746442123.9684198,0.0072947555051917
1746442123.997147,0.0097883471528346
1746442124.0258744,0.0136717876230521
1746442124.0546017,0.0141758285329782
1746442124.083329,0.0182639066865618
1746442124.1120565,0.0192021826057788
1746442124.1407835,0.0194413905932576
1746442124.1695108,0.0197366579842438
1746442124.198238,0.0204193135289235
1746442124.2269654,0.0199017769023772
1746442124.2556927,0.020623559269238
1746442124.28442,0.0186732360344821
1746442124.3131473,0.0196760132064974
1746442124.3418746,0.0196249878534373
1746442124.370602,0.0189839200852226
1746442124.3993292,0.0171819753082464
1746442124.4280565,0.0168644295432372
1746442124.4567838,0.0170969715592054
1746442124.485511,0.0157860610938287
1746442124.5142384,0.0142448359181793
1746442124.5429657,0.0150282401704729
1746442124.571693,0.0148718115822717
1746442124.6004202,0.0141373093354262
1746442124.6291475,0.0128487302141685
1746442124.6578748,0.0108957990034168
1746442124.686602,0.0109412821822651
1746442124.7153294,0.0105344486698198
1746442124.7440567,0.0092553359238454
1746442124.772784,0.0086940961636565
1746442124.8015113,0.0084818376166679
1746442124.8302386,0.0083885387816513
1746442124.858966,0.007692858823988
1746442124.8876932,0.0065517061281237
1746442124.9164205,0.0061739197902254
1746442124.9451478,0.0053099232615998
1746442124.973875,0.0057884425346097
1746442125.0026023,0.0058212934776626
1746442125.0313296,0.0057084097316104
1746442125.060057,0.0055666048016793
1746442125.0887842,0.006446695093231
1746442125.1175115,0.0061561119650736
1746442125.1462388,0.0062049439956268
1746442125.174966,0.0063257145609077
1746442125.2036934,0.0065745462776871
1746442125.2324207,0.0066920567744066
1746442125.261148,0.006943494136829
1746442125.2898753,0.0061827299480151
1746442125.3186026,0.0063254012442963
1746442125.34733,0.0063638391682211
1746442125.3760571,0.0059627193792609
1746442125.4047844,0.0059119116239054
1746442125.4335115,0.0056633324271533
1746442125.462239,0.0056085489167875
1746442125.4909663,0.0057031257222973
1746442125.5196936,0.0058661508992609
1746442125.548421,0.0058366230740403
1746442125.5771482,0.0060730966972722
1746442125.6058755,0.0055797560594224
1746442125.6346028,0.0058225786182248
1746442125.66333,0.0058974115939327
1746442125.6920574,0.0058767242890255
1746442125.720785,0.0058918581324587
1746442125.749512,0.0059335227249214
1746442125.7782393,0.0059913387823162
1746442125.8069663,0.0060845577619995
1746442125.8356938,0.0061249626328059
1746442125.8644211,0.0063839679126758
1746442125.8931484,0.0062148100394012
1746442125.9218757,0.0066360655503311
1746442125.950603,0.0066162084594765
1746442125.9793303,0.006718117298643
1746442126.0080576,0.0065416004610408
1746442126.036785,0.0066027919901763
1746442126.0655122,0.006442716432028
1746442126.0942397,0.0065519460861807
1746442126.1229668,0.0059312326569809
1746442126.151694,0.0058287580341287
1746442126.1804214,0.0055067853588299
1746442126.2091486,0.0063514089326462
1746442126.237876,0.0062030352005502
1746442126.2666032,0.0060312835322121
1746442126.2953303,0.0061215566605737
1746442126.3240578,0.0062012754799111
1746442126.352785,0.0060049186511543
1746442126.3815124,0.0059613781536002
1746442126.4102397,0.0052566353643411
1746442126.438967,0.0055690957845333
1746442126.4676943,0.0053844438232526
1746442126.4964216,0.0054355428304961
1746442126.5251489,0.0054909424181119
1746442126.5538762,0.0058149265359866
1746442126.5826037,0.0055026713980394
1746442126.6113307,0.0055172304459365
1746442126.640058,0.0053628952476865
1746442126.668785,0.0054990792676157
1746442126.6975126,0.0055273717729291
1746442126.72624,0.0052247523988573
1746442126.7549672,0.0050413656408548
1746442126.7836945,0.0055383797373975
1746442126.8124218,0.005650671430386
1746442126.841149,0.0053341348065166
1746442126.8698764,0.0054969990019302
1746442126.8986037,0.0053261698191801
1746442126.927331,0.0056310171020131
1746442126.9560585,0.0055870017872225
1746442126.9847856,0.0052559685203256
1746442127.0135128,0.0051295326051066
1746442127.04224,0.0053566234909482
1746442127.0709674,0.0053911682884821
1746442127.0996947,0.0053712590549374
1746442127.128422,0.005111444737645
1746442127.1571493,0.0053414106237767
1746442127.1858766,0.0053406376011427
1746442127.214604,0.0052225529861186
1746442127.2433312,0.0052537472463523
1746442127.2720585,0.005366413465275
1746442127.3007858,0.0051997688340968
1746442127.329513,0.0051834728009069
1746442127.3582404,0.0051196713965453
1746442127.3869677,0.0051183192980192
1746442127.415695,0.0051634547094438
1746442127.4444222,0.0052504453354428
1746442127.4731495,0.0049539043967764
1746442127.5018768,0.0052551045869712
1746442127.530604,0.0053060045857568
1746442127.5593314,0.0052262392832527
1746442127.5880587,0.0052097939691868
1746442127.616786,0.0053005512012128
1746442127.6455133,0.005119986221459
1746442127.6742406,0.0051957493557775
1746442127.702968,0.0050450095025849
1746442127.7316952,0.0051326904063137
1746442127.7604225,0.0050971253330094
1746442127.7891498,0.005190940681065
1746442127.817877,0.0052316439748314
1746442127.8466043,0.0052403076792745
1746442127.8753316,0.0052256741577222
1746442127.904059,0.0052980544363549
1746442127.9327862,0.0063727057024644
1746442127.9615135,0.0094891075289526
1746442127.9902408,0.0128839639841309
1746442128.018968,0.0156540205867516
1746442128.0476954,0.0167756041847213
1746442128.0764227,0.0171317766047413
1746442128.10515,0.0173818531358218
1746442128.1338773,0.0179750446124339
1746442128.1626046,0.017812608098385
1746442128.191332,0.0157926216743047
1746442128.2200592,0.0140122968903397
1746442128.2487864,0.0147166154095437
1746442128.2775135,0.0154111582133492
1746442128.306241,0.0153402002606998
1746442128.3349683,0.0144297297758213
1746442128.3636956,0.0139185265461364
1746442128.392423,0.0144956987181445
1746442128.4211502,0.0137680417984623
1746442128.4498775,0.0120142569166788
1746442128.4786048,0.0110651147406307
1746442128.507332,0.0108465607667134
1746442128.5360594,0.0102794435179032
1746442128.564787,0.0099188810702913
1746442128.593514,0.0101412476271741
1746442128.6222413,0.0098946749868027
1746442128.6509686,0.0093850390329034
1746442128.6796958,0.0090582155033261
1746442128.7084231,0.0092152153661306
1746442128.7371504,0.0089510789228999
1746442128.7658775,0.0080290534069692
1746442128.794605,0.0060685302294691
1746442128.8233323,0.0056985368480803
1746442128.8520596,0.0059947727393279
1746442128.880787,0.0059351487701843
1746442128.9095142,0.0057666220393787
1746442128.9382415,0.0055530806122577
1746442128.9669688,0.0057644031127056
1746442128.995696,0.0058041998586136
1746442129.0244234,0.0060343017769343
1746442129.053151,0.0062969934460353
1746442129.081878,0.0063385254649279
1746442129.1106052,0.0060855369095093
1746442129.1393323,0.0061903268086689
1746442129.1680598,0.0061664273132894
1746442129.196787,0.0064304686563892
1746442129.2255144,0.0059444682635615
1746442129.2542417,0.0056181233354342
1746442129.282969,0.0057265803341012
1746442129.3116963,0.006038623532386
1746442129.3404236,0.0057992648443849
1746442129.3691509,0.0057512433057718
1746442129.3978782,0.0057418595707723
1746442129.4266057,0.0056237939568777
1746442129.4553328,0.0057242600035632
1746442129.48406,0.0057185372940357
1746442129.512787,0.0056311166863887
1746442129.5415146,0.0056132383844909
1746442129.570242,0.005501490981709
1746442129.5989692,0.0053486690184664
1746442129.6276965,0.0058361288047679
1746442129.6564238,0.0055688344316048
1746442129.685151,0.0054817944587438
1746442129.7138784,0.0052214092492434
1746442129.7426057,0.0055264102903072
1746442129.771333,0.005675655075209
1746442129.8000605,0.0055252548921643
1746442129.8287876,0.0051813924353994
1746442129.8575149,0.0053146140605254
1746442129.8862422,0.0053401725729963
1746442129.9149694,0.0053880595838516
1746442129.9436967,0.0052406336467
1746442129.972424,0.0050947216625775
1746442130.001151,0.0051542626036698
1746442130.0298786,0.0049950400871789
1746442130.058606,0.0051153301992182
1746442130.0873332,0.0050241211543164
1746442130.1160605,0.0050829135788227
1746442130.1447878,0.0050206720089653
1746442130.173515,0.0048078634644502
1746442130.2022424,0.0049255383243941
1746442130.2309697,0.0049523279627148
1746442130.259697,0.0049906472212708
1746442130.2884245,0.0049648197455542
1746442130.3171515,0.0049452835959002
1746442130.3458788,0.0049800931361452
1746442130.374606,0.005241199913203
1746442130.4033334,0.0052995519446083
1746442130.4320607,0.0051471261338309
1746442130.460788,0.0051451552621076
1746442130.4895153,0.0051550697449287
1746442130.5182426,0.005363744152305
1746442130.54697,0.0053784314189954
1746442130.5756972,0.0053768590994016
1746442130.6044245,0.0054149526499566
1746442130.6331518,0.0054942308565284
1746442130.661879,0.0056317054381814
1746442130.6906064,0.0055359960949667
1746442130.7193336,0.0053895394133024
1746442130.748061,0.0053288809412291
1746442130.7767882,0.0051135094097421
1746442130.8055155,0.004974237710547
1746442130.8342428,0.0052136616233124
1746442130.86297,0.0047836627403823
1746442130.8916974,0.0049717457445812
1746442130.9204247,0.0050032629386933
1746442130.949152,0.0050613911616189
1746442130.9778793,0.0050457061767036
1746442131.0066066,0.0051660404085538
1746442131.035334,0.0048813980497891
1746442131.0640612,0.0050321830927133
1746442131.0927885,0.0049581710177782
1746442131.1215158,0.0050493627129776
1746442131.150243,0.0047986400366401
1746442131.1789703,0.0050129546582939
1746442131.2076976,0.0050039457988831
1746442131.236425,0.00510955738518
1746442131.2651522,0.0050038693700438
1746442131.2938795,0.0048123023781734
1746442131.3226068,0.0049778491425968
1746442131.351334,0.0049749183781684
1746442131.3800614,0.0049378655183231
1746442131.4087887,0.004776934294411
1746442131.437516,0.005014938575503
1746442131.4662433,0.0050323184969876
1746442131.4949706,0.0050685295398127
1746442131.523698,0.0050236721356003
1746442131.5524251,0.0051603692098516
1746442131.5811524,0.0052039795373027
1746442131.6098795,0.0050779382680931
1746442131.638607,0.0049131583935911
1746442131.6673343,0.0049539339259833
1746442131.6960616,0.0051038601335779
1746442131.724789,0.0049752951056042
1746442131.7535162,0.0049310393557401
1746442131.7822435,0.0047788207598207
1746442131.8109708,0.004984284171386
1746442131.839698,0.0050510382140374
1746442131.8684254,0.005263614755132
1746442131.897153,0.0051252880877277
1746442131.92588,0.0050198040171618
1746442131.9546072,0.0082864950298936
1746442131.9833343,0.0120683482641311
1746442132.0120618,0.0130245283821979
1746442132.0407891,0.0161253474780697
1746442132.0695164,0.0175933146121784
1746442132.0982437,0.0182278068764835
1746442132.126971,0.0186232758741361
1746442132.1556983,0.0196635482470235
1746442132.1844256,0.0192791025902672
1746442132.213153,0.0186823769018081
1746442132.2418802,0.0175559145176626
1746442132.2706077,0.0184117051815084
1746442132.2993348,0.0184192416513172
1746442132.328062,0.0178669614192523
1746442132.3567894,0.0167649182651853
1746442132.3855166,0.0160324270142146
1746442132.414244,0.0159138639121578
1746442132.4429712,0.0148761122207241
1746442132.4716983,0.0124670510865129
1746442132.5004258,0.0118727681124511
1746442132.529153,0.011888453847407
1746442132.5578804,0.0105454994889012
1746442132.5866077,0.0092616805840619
1746442132.615335,0.0087237282064014
1746442132.6440625,0.0085668603238121
1746442132.6727896,0.0077602358699461
1746442132.7015169,0.0079980627155701
1746442132.7302442,0.0086677942716627
1746442132.7589717,0.0082723964615545
1746442132.7876987,0.0078067103834148
1746442132.816426,0.007491287125948
1746442132.845153,0.0072291768861553
1746442132.8738806,0.0070342538538279
1746442132.902608,0.0069095785511072
1746442132.9313352,0.0059018667561172
1746442132.9600625,0.0056194880992711
1746442132.9887898,0.005947194785785
1746442133.017517,0.00616605385445
1746442133.0462444,0.0067304174538425
1746442133.0749717,0.006635615836078
1746442133.103699,0.0059528075578437
1746442133.1324265,0.0059163526704473
1746442133.1611536,0.0065595316374506
1746442133.1898808,0.006606082503461
1746442133.218608,0.0068718288474026
1746442133.2473354,0.0066799643018955
1746442133.2760627,0.0068430887693362
1746442133.30479,0.0072628185644289
1746442133.3335173,0.0072518193572445
1746442133.3622446,0.0067492226002626
1746442133.390972,0.0067304446515096
1746442133.4196992,0.0060443009733928
1746442133.4484265,0.0060036820871275
1746442133.4771538,0.0060062368824572
1746442133.505881,0.0057801594164118
1746442133.5346084,0.0057531374601029
1746442133.5633357,0.0059228989528234
1746442133.592063,0.0055950946788398
1746442133.6207902,0.0058171452832338
1746442133.6495175,0.0057170815105919
1746442133.6782448,0.0055253769317425
1746442133.706972,0.0054116453051685
1746442133.7356994,0.0056291249406706
1746442133.7644267,0.0055730694087963
1746442133.793154,0.0055690762136293
1746442133.8218813,0.0053624824341184
1746442133.8506086,0.0055948468633637
1746442133.879336,0.0056641025632025
1746442133.9080632,0.0058348446941042
1746442133.9367905,0.0055959295809514
1746442133.9655178,0.0056577505558132
1746442133.994245,0.0056428702087006
1746442134.0229723,0.005741819962122
1746442134.0516996,0.005680736328957
1746442134.080427,0.0056426800468267
1746442134.1091542,0.0054589407634783
1746442134.1378815,0.0053704361854295
1746442134.1666088,0.0054714745279931
1746442134.195336,0.0056022915303701
1746442134.2240634,0.0056849908639495
1746442134.2527907,0.0057252473048701
1746442134.281518,0.005598251127546
1746442134.3102453,0.0058761079169467
1746442134.3389726,0.0058611623884487
1746442134.3677,0.0056774904848121
1746442134.3964272,0.005573324567781
1746442134.4251544,0.0054678837330383
1746442134.4538815,0.0056241856876163
1746442134.482609,0.0058845504788752
1746442134.5113363,0.0059674547767508
1746442134.5400636,0.0058893092817762
1746442134.568791,0.0059405914385664
1746442134.5975182,0.0059474257083752
1746442134.6262455,0.0062010675035807
1746442134.6549728,0.0057469657513505
1746442134.6837,0.0055161347552672
1746442134.7124274,0.0051022814642012
1746442134.741155,0.0055329412171676
1746442134.769882,0.0055896688993053
1746442134.7986093,0.0055490868847078
1746442134.8273363,0.0053780408339513
1746442134.8560638,0.005388087800395
1746442134.8847911,0.0057444048408356
1746442134.9135184,0.0057733948945356
1746442134.9422455,0.0057330251088324
1746442134.970973,0.0054943730158217
1746442134.9997003,0.0055674444277105
1746442135.0284276,0.005506784671098
1746442135.057155,0.005669822835135
1746442135.0858822,0.0055156911202169
1746442135.1146097,0.0055643115151874
1746442135.1433368,0.0054104806144899
1746442135.172064,0.005408500667324
1746442135.2007914,0.0054253977860176
1746442135.229519,0.005600209728382
1746442135.258246,0.0054251342726662
1746442135.2869732,0.0055747245590303
1746442135.3157003,0.0056342583088672
1746442135.3444278,0.0057606455969729
1746442135.373155,0.0057075895431604
1746442135.4018824,0.0055459364398275
1746442135.4306097,0.0053252692534606
1746442135.459337,0.0056154340086108
1746442135.4880643,0.0050613251304024
1746442135.5167916,0.0049603698998563
1746442135.5455189,0.0049607865275868
1746442135.5742462,0.005058922833702
1746442135.6029737,0.0052689157432351
1746442135.6317008,0.0056095539542454
1746442135.660428,0.005278358129804
1746442135.689155,0.0053603504023163
1746442135.7178826,0.0055772122881182
1746442135.74661,0.0053571640993573
1746442135.7753372,0.0051621960318232
1746442135.8040645,0.0052586724828679
1746442135.8327918,0.0053025017280521
1746442135.861519,0.0054374557275408
1746442135.8902464,0.005694997440766
1746442135.9189737,0.0054836429174629
1746442135.947701,0.0055867529975279
1746442135.9764285,0.0057146579154239
1746442136.0051556,0.0078713255136285
1746442136.0338829,0.0095144503710056
1746442136.06261,0.0123537836330607
1746442136.0913374,0.0130272268886373
1746442136.1200647,0.0162990215729417
1746442136.148792,0.0173784162898382
1746442136.177519,0.0180117877711456
1746442136.2062466,0.0187685644791112
1746442136.234974,0.0191233793041459
1746442136.2637012,0.0181666101083272
1746442136.2924285,0.0179391843903428
1746442136.3211558,0.0180955716416865
1746442136.349883,0.018176510535927
1746442136.3786104,0.0185031446037618
1746442136.4073377,0.0170452704544563
1746442136.436065,0.0160750544791679
1746442136.4647925,0.0163428169270804
1746442136.4935195,0.0167027924257879
1746442136.5222468,0.013780606415167
1746442136.550974,0.0134475485081144
1746442136.5797014,0.0131701058760307
1746442136.6084287,0.0135896719390951
1746442136.637156,0.0138098373541848
1746442136.6658833,0.0130584336851719
1746442136.6946106,0.0123138838730238
1746442136.723338,0.0112957996761831
1746442136.7520652,0.0107457923488749
1746442136.7807925,0.0094623349469266
1746442136.8095198,0.007816121466186
1746442136.838247,0.0064466303743277
1746442136.8669744,0.0066974018192194
1746442136.8957016,0.0071805143720749
1746442136.924429,0.0068030299316487
1746442136.9531562,0.0067550614544206
1746442136.9818835,0.0067740532896209
1746442137.0106108,0.0065546381106377
1746442137.039338,0.0064306098554009
1746442137.0680654,0.0061966265457066
1746442137.0967927,0.0058010245518272
1746442137.12552,0.0060622384409027
1746442137.1542473,0.006171366128282
1746442137.1829746,0.006079296824027
1746442137.211702,0.0060066383085778
1746442137.2404292,0.00608941642622
1746442137.2691565,0.0058785310690457
1746442137.2978835,0.0056218951372517
1746442137.326611,0.0055628847737443
1746442137.3553383,0.0058771609926314
1746442137.3840656,0.0057540966939293
1746442137.412793,0.0055453845398578
1746442137.4415202,0.0055954526373065
1746442137.4702475,0.0057879798357084
1746442137.4989748,0.005843071551879
1746442137.527702,0.0055120389453945
1746442137.5564294,0.0051635695011151
1746442137.585157,0.0053413468904794
1746442137.613884,0.0054586382864044
1746442137.6426113,0.0053620418169562
1746442137.6713386,0.0055244196550247
1746442137.700066,0.0054280843949361
1746442137.7287931,0.0055347968310755
1746442137.7575204,0.0055006635798955
1746442137.7862475,0.0055349298706374
1746442137.814975,0.0054306221044543
1746442137.8437023,0.005929691760055
1746442137.8724296,0.0058982829038566
1746442137.901157,0.0058183400468791
1746442137.9298842,0.0056653399138573
1746442137.9586115,0.0058126740771637
1746442137.9873388,0.0055771472676131
1746442138.016066,0.0056778835455279
1746442138.0447934,0.0050987876502587
1746442138.073521,0.0052390398976716
1746442138.102248,0.0052762354914331
1746442138.1309752,0.0055688863547316
1746442138.1597023,0.0052680763369754
1746442138.1884298,0.0053239806026462
1746442138.2171571,0.0051941145048041
1746442138.2458844,0.0052468656477173
1746442138.2746117,0.0052077387040597
1746442138.303339,0.0054751072753844
1746442138.3320663,0.0051630837069463
1746442138.3607936,0.0052010146931533
1746442138.389521,0.0054466068404127
1746442138.4182482,0.0056236066424706
1746442138.4469757,0.005596430916944
1746442138.4757028,0.0054503619142117
1746442138.50443,0.0051719402750916
1746442138.533157,0.0055150320091445
1746442138.5618846,0.005571779899058
1746442138.590612,0.0052502983420666
1746442138.6193392,0.0051522895272095
1746442138.6480663,0.0051716068296516
1746442138.6767938,0.0051487465177448
1746442138.705521,0.0054408574049238
1746442138.7342484,0.0052985050071057
1746442138.7629757,0.0052532829972128
1746442138.791703,0.0054710687388473
1746442138.8204305,0.0054756334116854
1746442138.8491576,0.0054972183514681
1746442138.8778849,0.0055451359045444
1746442138.9066122,0.0053517356628352
1746442138.9353397,0.005385922033293
1746442138.9640667,0.0053479904365433
1746442138.992794,0.0055066957422479
1746442139.021521,0.0055942630579104
1746442139.0502486,0.0053336154992263
1746442139.078976,0.0054430244108211
1746442139.1077032,0.0053989606188803
1746442139.1364305,0.0052206442195186
1746442139.1651578,0.0052364756420629
1746442139.193885,0.0053631064211689
1746442139.2226124,0.0051205201770673
1746442139.2513397,0.0053001919872489
1746442139.280067,0.0055062829378786
1746442139.3087945,0.0054923229409411
1746442139.3375216,0.0055607480568058
1746442139.3662488,0.0057919074154605
1746442139.394976,0.0053728196590347
1746442139.4237034,0.0056636095808789
1746442139.4524307,0.0055554643012737
1746442139.481158,0.0053793930430294
1746442139.5098853,0.0054932536240185
1746442139.5386126,0.0055143143657308
1746442139.56734,0.0053841852994373
1746442139.5960672,0.0054241746058611
1746442139.6247945,0.0052292095185678
1746442139.6535218,0.0052282482214382
1746442139.682249,0.0052085150319839
1746442139.7109764,0.004934498847394
1746442139.7397037,0.0050455621071903
1746442139.768431,0.0051265735468986
1746442139.7971582,0.0052876098213916
1746442139.8258855,0.0051799730795055
1746442139.8546128,0.004970051024583
1746442139.88334,0.0051822676428783
1746442139.9120674,0.0060063914155138
1746442139.9407947,0.0074604535921411
1746442139.969522,0.0122805035529881
1746442139.9982493,0.014323965191084
1746442140.0269766,0.0176567685863929
1746442140.055704,0.0187785671402329
1746442140.0844312,0.0189460626245711
1746442140.1131585,0.0194587233277341
1746442140.1418858,0.0192000226667188
1746442140.170613,0.0186768368251427
1746442140.1993403,0.0180791483005773
1746442140.2280676,0.0153247422948157
1746442140.256795,0.0151637987752412
1746442140.2855222,0.0160113539566045
1746442140.3142495,0.0166914316756443
1746442140.3429768,0.0163203899549306
1746442140.371704,0.0149111888868685
1746442140.4004314,0.0155252117822615
1746442140.4291587,0.0154682430030525
1746442140.457886,0.0142722308576123
1746442140.4866133,0.0135380775202172
1746442140.5153406,0.013140776028777
1746442140.544068,0.0127049910864577
1746442140.5727952,0.0126871875490632
1746442140.6015224,0.0111668817702287
1746442140.6302495,0.0109799601146447
1746442140.658977,0.0119995929802476
1746442140.6877043,0.0114386804582038
1746442140.7164316,0.0100264104003786
1746442140.745159,0.0094907363555335
1746442140.7738862,0.0085585173545422
1746442140.8026135,0.0084588462162937
1746442140.8313408,0.0077724963337994
1746442140.860068,0.006118814904143
1746442140.8887954,0.0061828587212112
1746442140.917523,0.00720120727629
1746442140.94625,0.0069330558984239
1746442140.9749773,0.0069286265019049
1746442141.0037043,0.0068041528870288
1746442141.0324318,0.0067823249522611
1746442141.0611591,0.0071725400090915
1746442141.0898864,0.0069984662096781
1746442141.1186135,0.0058939205227357
1746442141.147341,0.0063717213884125
1746442141.1760683,0.0064831470473421
1746442141.2047956,0.0064688051745903
1746442141.233523,0.0064245357299641
1746442141.2622502,0.0058821261251259
1746442141.2909777,0.0057386910405963
1746442141.3197048,0.0057131873270216
1746442141.348432,0.0052859241358394
1746442141.3771594,0.0051983196852144
1746442141.405887,0.0055014775089686
1746442141.434614,0.0054768241489177
1746442141.4633412,0.0055135135255947
1746442141.4920683,0.0054099476964204
1746442141.5207958,0.0055155311960769
1746442141.549523,0.0054568193506696
1746442141.5782504,0.0053498563173968
1746442141.6069777,0.005266270438972
1746442141.635705,0.0056174149250505
1746442141.6644323,0.0056393815808346
1746442141.6931596,0.005786392889984
1746442141.7218869,0.0056919470040175
1746442141.7506142,0.0060190791721324
1746442141.7793417,0.0062695913479735
1746442141.8080688,0.0064706621275413
1746442141.836796,0.0062895261394713
1746442141.865523,0.0064430064323144
1746442141.8942506,0.0067110233101493
1746442141.922978,0.0065829959163858
1746442141.9517052,0.0063853582057686
1746442141.9804325,0.0061466579716501
1746442142.0091598,0.0059305814662406
1746442142.037887,0.0058379558963038
1746442142.0666144,0.005999459987503
1746442142.0953417,0.0059446099942526
1746442142.124069,0.0059680902441539
1746442142.1527965,0.0061024671722691
1746442142.1815236,0.0059941390203396
1746442142.2102509,0.0060693494822906
1746442142.238978,0.0058968224959468
1746442142.2677054,0.0057610401917556
1746442142.2964327,0.0057781751134775
1746442142.32516,0.0058970234277053
1746442142.353887,0.005865124377751
1746442142.3826146,0.0060321887657284
1746442142.411342,0.006057112530149
1746442142.4400692,0.0062069560414261
1746442142.4687965,0.0058620709532117
1746442142.4975238,0.0056620375356223
1746442142.526251,0.0057676601708108
1746442142.5549784,0.0058448648276976
1746442142.5837057,0.0057490389722117
1746442142.612433,0.0059358571002598
1746442142.6411602,0.0058900818580955
1746442142.6698875,0.0059433900216665
1746442142.6986148,0.0057950466576624
1746442142.727342,0.0057376415797831
1746442142.7560694,0.0054494787499708
1746442142.7847967,0.0056546996164877
1746442142.813524,0.0052086702998564
1746442142.8422513,0.0053397043100993
1746442142.8709786,0.0052831286829083
1746442142.899706,0.0056069355318819
1746442142.9284332,0.005421438537317
1746442142.9571605,0.0054200150200162
1746442142.9858878,0.00531173434091
1746442143.014615,0.0052575217320452
1746442143.0433424,0.0054604337435968
1746442143.0720696,0.0054693404147731
1746442143.100797,0.0052104363595786
1746442143.1295242,0.0053948655044606
1746442143.1582515,0.0054040779634098
1746442143.1869788,0.0053460148315539
1746442143.215706,0.0051769399892298
1746442143.2444334,0.0052083590042949
1746442143.2731607,0.0051126397079275
1746442143.301888,0.0051836086505001
1746442143.3306153,0.0050698656744354
1746442143.3593426,0.0048984302810032
1746442143.38807,0.0049668173300335
1746442143.4167972,0.005111318109048
1746442143.4455245,0.0050966690582329
1746442143.4742515,0.0051432739933784
1746442143.502979,0.0051712976751721
1746442143.5317063,0.0052108864507888
1746442143.5604336,0.0053635197437094
1746442143.589161,0.0053959182919939
1746442143.6178882,0.0053245701272461
1746442143.6466155,0.0052227957720632
1746442143.6753428,0.0052155560572799
1746442143.70407,0.0051582140650799
1746442143.7327974,0.0049854154535582
1746442143.761525,0.0050233415362801
1746442143.790252,0.0050553803068165
1746442143.8189793,0.0049545170277817
1746442143.8477066,0.0048732535874272
1746442143.8764338,0.0049476284092997
1746442143.9051611,0.004888426180457
1746442143.9338884,0.0052352971642819
1746442143.9626155,0.0066727631431985
1746442143.991343,0.0095885255972117
1746442144.0200703,0.0124602800350686
1746442144.0487976,0.0138192645792192
1746442144.077525,0.0149990365502501
1746442144.1062522,0.0167439147847469
1746442144.1349795,0.019225590136596
1746442144.1637068,0.0200936812016903
1746442144.192434,0.0201980680238213
1746442144.2211614,0.0195058841923298
1746442144.249889,0.0192246078970995
1746442144.278616,0.01986661995716
1746442144.3073432,0.0195309894837394
1746442144.3360703,0.0175134599591476
1746442144.3647978,0.0161605994411031
1746442144.3935251,0.0154961973031479
1746442144.4222524,0.0146464352923754
1746442144.4509797,0.0140549884712232
1746442144.479707,0.0119694384210297
1746442144.5084343,0.0102290424597061
1746442144.5371616,0.0097409466168769
1746442144.565889,0.0093074973141051
1746442144.5946162,0.0081527871489874
1746442144.6233437,0.0077950719914219
1746442144.6520708,0.0070878674225446
1746442144.680798,0.0072079334081897
1746442144.709525,0.0065030559423619
1746442144.7382526,0.006025706541245
1746442144.76698,0.0056199393719855
1746442144.7957072,0.0055916189761619
1746442144.8244345,0.0054291150192219
1746442144.8531618,0.0049649641820133
1746442144.881889,0.0049137363162733
1746442144.9106164,0.0049615369041402
1746442144.9393437,0.0053863068568441
1746442144.968071,0.0057339630477748
1746442144.9967985,0.0053505283610415
1746442145.0255256,0.005261734045918
1746442145.0542529,0.0052475491775937
1746442145.0829802,0.0056203838417412
1746442145.1117074,0.0059119248369046
1746442145.1404347,0.00558086739094
1746442145.169162,0.0053769843081552
1746442145.197889,0.005729322580325
1746442145.2266166,0.0058654527417376
1746442145.255344,0.005876749018343
1746442145.2840712,0.0055721719221552
1746442145.3127985,0.0053834100958622
1746442145.3415258,0.0054489975814396
1746442145.370253,0.005647546673733
1746442145.3989804,0.0055221388235782
1746442145.4277077,0.0055884498800517
1746442145.456435,0.0055748458272387
1746442145.4851625,0.0053570927171927
1746442145.5138896,0.0057441565297795
1746442145.5426168,0.005684501772519
1746442145.571344,0.0053971492458993
1746442145.6000714,0.00542061833155
1746442145.6287987,0.0055046823247842
1746442145.657526,0.0057117515615345
1746442145.6862533,0.0058539415534075
1746442145.7149806,0.0057867587992137
1746442145.743708,0.0057403000621097
1746442145.7724352,0.005960178772954
1746442145.8011625,0.0059861335110388
1746442145.8298898,0.0059676962464519
1746442145.858617,0.0058735054574869
1746442145.8873444,0.0056302726039448
1746442145.9160717,0.0055437708247458
1746442145.944799,0.0055610937531901
1746442145.9735262,0.0053681790453075
1746442146.0022535,0.0054518950472877
1746442146.0309808,0.0053849582193751
1746442146.059708,0.005305505776338
1746442146.0884354,0.0057939562273499
1746442146.1171627,0.0055405532161896
1746442146.14589,0.005351614417703
1746442146.1746173,0.0054193822232254
1746442146.2033446,0.0051239943320193
1746442146.232072,0.0055427663387243
1746442146.2607992,0.0056197183541367
1746442146.2895265,0.0051437495025153
1746442146.3182538,0.0053398428416842
1746442146.346981,0.0053328088507033
1746442146.3757083,0.0054984664993651
1746442146.4044356,0.0055569203801294
1746442146.433163,0.0051108866525694
1746442146.4618902,0.0050969474591819
1746442146.4906175,0.0053005770704293
1746442146.5193448,0.0055817557582776
1746442146.548072,0.0056034962372698
1746442146.5767994,0.0054519017341903
1746442146.6055267,0.0056821158698973
1746442146.634254,0.0057319004867654
1746442146.6629813,0.0055862639102731
1746442146.6917086,0.0054315199986591
1746442146.720436,0.0050011238491686
1746442146.7491632,0.0049751251582329
1746442146.7778904,0.0050364470880504
1746442146.8066175,0.0047392139403779
1746442146.835345,0.0051097107655497
1746442146.8640723,0.0050660652359598
1746442146.8927996,0.005006664021679
1746442146.921527,0.0052091158085684
1746442146.9502542,0.0052835991968961
1746442146.9789815,0.0051736537079327
1746442147.0077088,0.0051775593200018
1746442147.036436,0.0050148934601594
1746442147.0651634,0.0049753273358965
1746442147.093891,0.0052348039973025
1746442147.122618,0.0050937330738931
1746442147.1513453,0.0050030682467489
1746442147.1800723,0.005150844154551
1746442147.2087998,0.0050389623772298
1746442147.2375271,0.004923702767873
1746442147.2662544,0.0052764580719418
1746442147.2949817,0.0051588633239714
1746442147.323709,0.0049214851986176
1746442147.3524363,0.0051959971059798
1746442147.3811636,0.0050492614175248
1746442147.409891,0.0051514810595952
1746442147.4386182,0.0051558056716384
1746442147.4673457,0.0049582792766928
1746442147.4960728,0.005011309980477
1746442147.5248,0.0052906197800179
1746442147.5535274,0.0051288015019591
1746442147.5822546,0.0052050916937803
1746442147.610982,0.0052361538825744
1746442147.6397092,0.0052865413015622
1746442147.6684363,0.0052115324829561
1746442147.6971638,0.0052327407285052
1746442147.725891,0.0051668167155937
1746442147.7546184,0.0050432101654302
1746442147.7833457,0.0050501703543857
1746442147.812073,0.0050919054538963
1746442147.8408003,0.005100833854376
1746442147.8695276,0.0051367935379523
1746442147.8982549,0.0052297539733454
1746442147.9269822,0.0052068130620332
1746442147.9557097,0.0057761388754832
1746442147.9844368,0.0087336900179587
1746442148.013164,0.0132169784770155
1746442148.041891,0.0138643595175178
1746442148.0706186,0.0167892309298403
1746442148.099346,0.0179146453018643
1746442148.1280732,0.0180477041407881
1746442148.1568005,0.0184315798195163
1746442148.1855278,0.0192431567140099
1746442148.214255,0.0188857302623727
1746442148.2429824,0.0199291356467173
1746442148.2717097,0.0176547870465303
1746442148.300437,0.0190439313594906
1746442148.3291645,0.0201559765347731
1746442148.3578916,0.0194284320791403
1746442148.3866189,0.0178376798184136
1746442148.415346,0.0162332939662711
1746442148.4440734,0.0156947607879753
1746442148.4728007,0.0151282297961704
1746442148.501528,0.0127935923131244
1746442148.5302553,0.0116814644065033
1746442148.5589826,0.0121824653472793
1746442148.58771,0.0124839937129102
1746442148.6164372,0.01208967006054
1746442148.6451645,0.0106119154531811
1746442148.6738918,0.0103325340632044
1746442148.702619,0.0108849075389746
1746442148.7313464,0.0106670658408848
1746442148.7600737,0.0096047034327285
1746442148.788801,0.0096166367235497
1746442148.8175282,0.0092506834721784
1746442148.8462555,0.0086171788884596
1746442148.8749828,0.0081628398087196
1746442148.90371,0.0075193594110305
1746442148.9324374,0.0069356926625196
1746442148.9611647,0.0067349714971891
1746442148.989892,0.0062312850915576
1746442149.0186193,0.0054382782558422
1746442149.0473466,0.0055663961442175
1746442149.076074,0.0057050109027401
1746442149.1048012,0.0060554234253918
1746442149.1335285,0.0061743443622593
1746442149.1622558,0.0061336973115517
1746442149.190983,0.0061145948067511
1746442149.2197104,0.0061781485815503
1746442149.2484376,0.0059793421654293
1746442149.277165,0.0058110754968583
1746442149.3058922,0.005676098704954
1746442149.3346195,0.0055943720798567
1746442149.3633468,0.0058154083360418
1746442149.392074,0.0058354198447504
1746442149.4208014,0.0058127812412091
1746442149.4495287,0.0058698701843493
1746442149.478256,0.0057645940940766
1746442149.5069833,0.0057232105073706
1746442149.5357106,0.0055195682528985
1746442149.564438,0.0054441665548919
1746442149.5931652,0.0054551722160428
1746442149.6218925,0.0054158170164937
1746442149.6506195,0.0054705801574966
1746442149.679347,0.0058003701884286
1746442149.7080743,0.0054524034367058
1746442149.7368016,0.0057694539751916
1746442149.765529,0.0056410572176169
1746442149.7942562,0.0055438208469521
1746442149.8229835,0.005689219639983
1746442149.8517108,0.0056254962108521
1746442149.880438,0.0053162893399079
1746442149.9091654,0.0055116052600955
1746442149.937893,0.005233252997742
1746442149.96662,0.0057816225760934
1746442149.9953473,0.0055436464195
1746442150.0240746,0.0053485224355352
1746442150.0528018,0.0053016181962309
1746442150.0815291,0.0056284286867727
1746442150.1102564,0.0057748076920582
1746442150.1389835,0.0057089046855668
1746442150.167711,0.0051732806426814
1746442150.1964383,0.0053760509083719
1746442150.2251656,0.0054511610325897
1746442150.253893,0.0056269845506729
1746442150.2826202,0.0053274409237413
1746442150.3113475,0.0050256993024986
1746442150.3400748,0.004919342756533
1746442150.368802,0.0051198702737972
1746442150.3975294,0.0050146154237297
1746442150.426257,0.0051581988898812
1746442150.454984,0.0051243673449975
1746442150.4837112,0.0049674230206756
1746442150.5124383,0.0053805797461316
1746442150.5411658,0.0054778689375308
1746442150.5698931,0.0052625284523244
1746442150.5986204,0.0052583679502873
1746442150.6273477,0.0050706754456823
1746442150.656075,0.00501685226938
1746442150.6848023,0.0051767363583959
1746442150.7135296,0.004675475642441
1746442150.7422569,0.0045914917461969
1746442150.7709842,0.0049341270553858
1746442150.7997117,0.0052662659192031
1746442150.8284388,0.0052561179846612
1746442150.857166,0.0049004290812172
1746442150.885893,0.0049614879516726
1746442150.9146206,0.0051287289025037
1746442150.943348,0.0054937894780838
1746442150.9720752,0.0053144364456217
1746442151.0008025,0.0052160649347832
1746442151.0295298,0.0051572465292507
1746442151.058257,0.0054252435238704
1746442151.0869844,0.0052823555115449
1746442151.1157117,0.0055874163462068
1746442151.144439,0.0052259822905194
1746442151.1731665,0.0052454344083521
1746442151.2018936,0.0054691852482974
1746442151.2306209,0.0053836346610058
1746442151.2593482,0.0052982804669687
1746442151.2880754,0.0053766190036201
1746442151.3168027,0.0050180774862813
1746442151.34553,0.0053315573749426
1746442151.374257,0.0053053695834051
1746442151.4029846,0.0048995150703162
1746442151.431712,0.0052005199077718
1746442151.4604392,0.0052506380979019
1746442151.4891665,0.0050919986452574
1746442151.5178938,0.0051587447857465
1746442151.546621,0.0049315882661352
1746442151.5753484,0.0048486731525217
1746442151.6040757,0.00499053424202
1746442151.632803,0.0047555422739253
1746442151.6615305,0.0046318836205499
1746442151.6902575,0.0048845097147072
1746442151.7189848,0.0050122252279434
1746442151.747712,0.0052036432607448
1746442151.7764394,0.0050567411408374
1746442151.8051667,0.0050065736055384
1746442151.833894,0.005176611711219
1746442151.8626213,0.005205632325406
1746442151.8913486,0.0052561857981527
1746442151.920076,0.0055732694724844
1746442151.9488032,0.0092782068481356
1746442151.9775305,0.0147296569467864
1746442152.0062578,0.0164955128576719
1746442152.034985,0.0181471251011499
1746442152.0637124,0.0187891888454174
1746442152.0924397,0.019637961148625
1746442152.121167,0.0200437946659534
1746442152.1498942,0.0203517124590639
1746442152.1786215,0.0189587441580475
1746442152.2073488,0.017683349115239
1746442152.236076,0.0177587070951065
1746442152.2648034,0.0187487323488057
1746442152.2935307,0.0191855645823022
1746442152.322258,0.0192020416410919
1746442152.3509853,0.0182537776301878
1746442152.3797126,0.0169377620874233
1746442152.40844,0.0166324083527453
1746442152.4371672,0.015415170354022
1746442152.4658945,0.0144018963893682
1746442152.4946218,0.0130217322501548
1746442152.523349,0.0122539063597271
1746442152.5520763,0.0116570640068586
1746442152.5808036,0.0111681174514832
1746442152.609531,0.0110443489854598
1746442152.6382582,0.0112768232837507
1746442152.6669855,0.0101017073903167
1746442152.6957128,0.0097214913695044
1746442152.72444,0.0093623572675463
1746442152.7531674,0.0082688025501933
1746442152.7818947,0.0079152802567518
1746442152.810622,0.0070511925909653
1746442152.8393493,0.0059980007187078
1746442152.8680766,0.0060587021005542
1746442152.896804,0.0062740551121558
1746442152.9255311,0.0063361409914969
1746442152.9542584,0.0061996500576133
1746442152.9829855,0.0058969174133634
1746442153.011713,0.006001691917866
1746442153.0404403,0.006070943593817
1746442153.0691676,0.0058802895813951
1746442153.097895,0.0055128698363839
1746442153.1266222,0.0056901155014332
1746442153.1553495,0.0058340872234103
1746442153.1840768,0.0059064320436917
1746442153.212804,0.005895403828127
1746442153.2415314,0.0055634363896976
1746442153.270259,0.0054756502105404
1746442153.298986,0.0057237526296287
1746442153.3277133,0.0055359145720962
1746442153.3564403,0.0054413954855062
1746442153.3851678,0.0053587744712426
1746442153.4138951,0.0052450488904874
1746442153.4426224,0.0055384347264877
1746442153.4713497,0.0055899782813663
1746442153.500077,0.0052854724907987
1746442153.5288043,0.0053049878524337
1746442153.5575316,0.0053024772617435
1746442153.586259,0.0051213112239763
1746442153.6149862,0.0052304792007591
1746442153.6437137,0.0047871733566463
1746442153.6724408,0.0049011430285677
1746442153.701168,0.0051210471431375
1746442153.7298954,0.0052767051079005
1746442153.7586226,0.0054168744833216
1746442153.78735,0.0054496235348346
1746442153.8160772,0.005391366470852
1746442153.8448043,0.0055109340235371
1746442153.8735318,0.0057935404559847
1746442153.902259,0.0054530052854964
1746442153.9309864,0.0057789218595447
1746442153.9597137,0.0057768288756784
1746442153.988441,0.0055704732480093
1746442154.0171683,0.0054954070962979
1746442154.0458956,0.0055146350299279
1746442154.0746229,0.0052533158017433
1746442154.1033502,0.0056088100568009
1746442154.1320777,0.0051835947446568
1746442154.1608047,0.0050976692498298
1746442154.189532,0.0053748418293618
1746442154.218259,0.0057612015334691
1746442154.2469866,0.005561427632534
1746442154.275714,0.005383834805044
1746442154.3044412,0.0052494214668257
1746442154.3331685,0.005240337094984
1746442154.3618958,0.0055466058625607
1746442154.390623,0.0054464428144345
1746442154.4193504,0.0054076329531753
1746442154.4480777,0.005708619943455
1746442154.476805,0.0056568154941664
1746442154.5055325,0.0054318030503323
1746442154.5342596,0.0058836704288658
1746442154.5629869,0.005749436953024
1746442154.591714,0.0057404254252054
1746442154.6204414,0.0054001170716945
1746442154.6491687,0.0053932552947892
1746442154.677896,0.0056938973434286
1746442154.7066233,0.0058736197270887
1746442154.7353506,0.00520940957835
1746442154.764078,0.0051089629585771
1746442154.7928052,0.0050711132216735
1746442154.8215325,0.0050029828985749
1746442154.8502598,0.0048919953970652
1746442154.878987,0.0047679711399824
1746442154.9077144,0.0048523066877964
1746442154.9364417,0.0051979134357906
1746442154.965169,0.004946295826682
1746442154.9938962,0.0049908246507338
1746442155.0226235,0.0050967932795993
1746442155.0513508,0.0052091075513396
1746442155.080078,0.00535998132948
1746442155.1088054,0.0054933634223408
1746442155.1375327,0.0054118404542193
1746442155.16626,0.0056794755781917
1746442155.1949873,0.0056409569281312
1746442155.2237146,0.0058098736869325
1746442155.252442,0.005675800999718
1746442155.2811692,0.0057498167864126
1746442155.3098965,0.0055950702497521
1746442155.3386238,0.0055528461439326
1746442155.367351,0.0053313113340347
1746442155.3960783,0.0053286910431798
1746442155.4248056,0.0054298465522183
1746442155.453533,0.00557527419848
1746442155.4822602,0.0052115863802933
1746442155.5109875,0.0053127789485073
1746442155.5397148,0.005428756634661
1746442155.568442,0.0053467281817085
1746442155.5971694,0.0053195210762126
1746442155.6258967,0.0049882959420523
1746442155.654624,0.0053669590988554
1746442155.6833513,0.0055138653802239
1746442155.7120786,0.0053750820711104
1746442155.740806,0.0051234818478929
1746442155.7695332,0.005475199963288
1746442155.7982605,0.0052678102234961
1746442155.8269875,0.0053968275829361
1746442155.855715,0.0051562047922351
1746442155.8844423,0.0049358996424792
1746442155.9131696,0.005064066837421
1746442155.941897,0.0051097150821624
1746442155.9706242,0.0053909635995762
1746442155.9993515,0.0054270153078501
1746442156.0280788,0.0054564702001508
1746442156.056806,0.0081143602221916
1746442156.0855334,0.0114852559832146
1746442156.114261,0.0142923231815225
1746442156.142988,0.0195975103740855
1746442156.1717153,0.0212358047839689
1746442156.2004426,0.0223940919731629
1746442156.2291698,0.0225237404347401
1746442156.2578971,0.0224810227807707
1746442156.2866244,0.0244105407793871
1746442156.3153515,0.0236093321965539
1746442156.344079,0.0200640287140611
1746442156.3728063,0.0191991466160245
1746442156.4015336,0.0190758691271071
1746442156.430261,0.0190888359518571
1746442156.4589882,0.0190521090751862
1746442156.4877155,0.0149782627170217
1746442156.5164428,0.0140881560837424
1746442156.54517,0.0140360251009741
1746442156.5738974,0.0127664530525543
1746442156.602625,0.0122288376552293
1746442156.631352,0.0127319524030997
1746442156.6600792,0.0113288720259358
1746442156.6888063,0.0108838882514238
1746442156.7175338,0.0106458257413455
1746442156.7462611,0.0097548222435819
1746442156.7749884,0.009439254359256
1746442156.8037157,0.0081503526889321
1746442156.832443,0.0070677143239851
1746442156.8611703,0.0069143632656751
1746442156.8898976,0.0062118402049395
1746442156.9186249,0.0057618078690101
1746442156.9473522,0.0054660568432977
1746442156.9760797,0.0055751673560311
1746442157.0048068,0.005512885472635
1746442157.033534,0.0051410226968912
1746442157.062261,0.0050313151559599
1746442157.0909886,0.0047991806609599
1746442157.119716,0.005008889027349
1746442157.1484432,0.0051219976888898
1746442157.1771705,0.0049342901181327
1746442157.2058978,0.0050247337561301
1746442157.234625,0.00500186787475
1746442157.2633524,0.0050857330161515
1746442157.2920797,0.0052008142113561
1746442157.320807,0.0050669901662259
1746442157.3495345,0.0052282107118287
1746442157.3782616,0.0050610817461028
1746442157.4069889,0.0054569793112681
1746442157.4357162,0.0056230295313104
1746442157.4644434,0.0053966979630856
1746442157.4931707,0.0053882825748958
1746442157.521898,0.0053285552340192
1746442157.550625,0.005267564228863
1746442157.5793526,0.0054620082108356
1746442157.60808,0.0053580326094297
1746442157.6368072,0.0051689269145724
1746442157.6655345,0.00563114607763
1746442157.6942618,0.0054751014659289
1746442157.722989,0.005518076600069
1746442157.7517164,0.0057590631680481
1746442157.7804437,0.0055886769312695
1746442157.809171,0.0055629680718219
1746442157.8378985,0.0057936311436946
1746442157.8666255,0.0053353142086713
1746442157.8953528,0.0055722673497336
1746442157.92408,0.0058213807167503
1746442157.9528074,0.0056567443278745
1746442157.9815347,0.0056803891591751
1746442158.010262,0.0054137716175058
1746442158.0389893,0.0055862349483386
1746442158.0677166,0.0057996458854297
1746442158.096444,0.0056294488085974
1746442158.1251712,0.0054651044040575
1746442158.1538985,0.0052904525343792
1746442158.1826258,0.0055111097423704
1746442158.211353,0.0056687477331981
1746442158.2400804,0.0053696949318918
1746442158.2688076,0.005590293857652
1746442158.297535,0.0055830498150567
1746442158.3262622,0.0055969197865132
1746442158.3549895,0.005663691391543
1746442158.3837168,0.0054972459777074
1746442158.412444,0.0054135554080846
1746442158.4411714,0.0055065954921817
1746442158.4698987,0.0053423106232164
1746442158.498626,0.0054118269167149
1746442158.5273533,0.0052282570485148
1746442158.5560806,0.0054452319618906
1746442158.584808,0.0053789261754963
1746442158.6135352,0.0053928129379171
1746442158.6422625,0.0053406196819263
1746442158.6709898,0.0051805637104743
1746442158.699717,0.0049985476751661
1746442158.7284443,0.0051799581662632
1746442158.7571716,0.0051465486039713
1746442158.785899,0.0049172056467422
1746442158.8146262,0.005328838277778
1746442158.8433535,0.0056640746649747
1746442158.8720808,0.0055024142456384
1746442158.900808,0.0057320953366716
1746442158.9295354,0.005690007926366
1746442158.9582627,0.0057473405744192
1746442158.98699,0.0056602955877163
1746442159.0157173,0.0056691140151363
1746442159.0444446,0.0055826615734736
1746442159.073172,0.0060036804253628
1746442159.1018991,0.0056256077152374
1746442159.1306264,0.0055727762228389
1746442159.1593535,0.0056612946533606
1746442159.188081,0.0058213058490335
1746442159.2168083,0.0057124559738484
1746442159.2455356,0.0054926181953453
1746442159.274263,0.0053219037414513
1746442159.3029902,0.0056185848198931
1746442159.3317175,0.0055801244079583
1746442159.3604448,0.0052099167040538
1746442159.389172,0.0053628632195571
1746442159.4178994,0.0050761928014767
1746442159.446627,0.0050633812620075
1746442159.475354,0.0050012966633231
1746442159.5040812,0.0050879749276448
1746442159.5328083,0.0050601592038567
1746442159.5615358,0.0051375529309314
1746442159.5902631,0.0051040194229357
1746442159.6189904,0.0051588926740077
1746442159.6477177,0.0050379200006703
1746442159.676445,0.0048912560570706
1746442159.7051723,0.0047994681286328
1746442159.7338996,0.0051136536761488
1746442159.762627,0.0049840643493212
1746442159.7913542,0.0051797188490267
1746442159.8200817,0.0050764459063497
1746442159.8488088,0.0051284121498621
1746442159.877536,0.0053541027217665
1746442159.9062634,0.005380644098889
1746442159.9349906,0.0051975053322995
1746442159.963718,0.0053339663971051
1746442159.9924452,0.0050268308883236
1746442160.0211723,0.005321109749451
1746442160.0498998,0.0057418142639996
1746442160.078627,0.0068232332616809
1746442160.1073544,0.0093421434152869
1746442160.1360817,0.0124329732871179
1746442160.164809,0.0156686100835906
1746442160.1935363,0.0175432323703732
1746442160.2222636,0.0185877166439562
1746442160.2509909,0.0196462115709952
1746442160.2797182,0.0206196763313153
1746442160.3084457,0.0214585219996924
1746442160.3371727,0.0201626292429501
1746442160.3659,0.0180929343194659
1746442160.394627,0.0181787819333315
1746442160.4233546,0.019353333905588
1746442160.452082,0.0183424175943388
1746442160.4808092,0.017574372143376
1746442160.5095365,0.0162125514443734
1746442160.5382638,0.0159554801561435
1746442160.566991,0.0162654177699571
1746442160.5957184,0.0143944953453177
1746442160.6244457,0.0116301287515015
1746442160.653173,0.0111965605480216
1746442160.6819005,0.0099160313526953
1746442160.7106276,0.0088137776335023
1746442160.7393548,0.0085662037497918
1746442160.768082,0.006604495552863
1746442160.7968094,0.0059740561840391
1746442160.8255367,0.005603262131275
1746442160.854264,0.0057818599901511
1746442160.8829913,0.0056660927634199
1746442160.9117186,0.0055440029897497
1746442160.940446,0.0054532382922138
1746442160.9691732,0.0054143323828243
1746442160.9979005,0.0055780825702897
1746442161.0266278,0.0058214747577365
1746442161.055355,0.0054553122395817
1746442161.0840824,0.0055606292488601
1746442161.1128097,0.0055220108881503
1746442161.141537,0.0056111962228658
1746442161.1702642,0.0058013283047313
1746442161.1989915,0.0054293991310123
1746442161.2277188,0.0053501103443802
1746442161.256446,0.0052930815595977
1746442161.2851734,0.0052672508303711
1746442161.3139007,0.0053584131927204
1746442161.342628,0.0051185096370905
1746442161.3713553,0.0049230301505558
1746442161.4000826,0.0049310246111563
1746442161.42881,0.0048230344214484
1746442161.4575372,0.0050803191780204
1746442161.4862645,0.0047027257507236
1746442161.5149918,0.0048627187397581
1746442161.543719,0.0048168105863451
1746442161.5724463,0.0049452595839895
1746442161.6011736,0.0051640912472097
1746442161.629901,0.005210563306739
1746442161.6586282,0.0052683765069323
1746442161.6873555,0.0051868772689909
1746442161.7160828,0.0058142471511429
1746442161.74481,0.0058715511179463
1746442161.7735374,0.0055537712478528
1746442161.8022647,0.0054373918181056
1746442161.830992,0.005630835722388
1746442161.8597193,0.0054514576692512
1746442161.8884466,0.0056148396623605
1746442161.917174,0.0049572213976131
1746442161.9459012,0.0049839651365208
1746442161.9746284,0.0051798433599255
1746442162.0033555,0.0051236805330275
1746442162.032083,0.0051081914801916
1746442162.0608103,0.0050893900113928
1746442162.0895376,0.0051669221595428
1746442162.118265,0.0049269380594715
1746442162.1469922,0.0051202569676937
1746442162.1757195,0.0051874089663473
1746442162.2044468,0.0050920342556181
1746442162.233174,0.0052194997662699
1746442162.2619014,0.005147443711489
1746442162.290629,0.0051922903377751
1746442162.319356,0.0052185079883727
1746442162.3480833,0.0050422903730657
1746442162.3768106,0.0050276121207599
1746442162.4055378,0.0052143529217325
1746442162.4342651,0.0050370890871579
1746442162.4629924,0.0050915361201495
1746442162.4917195,0.0047993177448851
1746442162.520447,0.0049414336234139
1746442162.5491743,0.0049883833475517
1746442162.5779016,0.0049657316617466
1746442162.606629,0.0049725458773061
1746442162.6353562,0.0047590272039612
1746442162.6640835,0.0046067019242282
1746442162.6928108,0.0047142980338344
1746442162.721538,0.004805436598296
1746442162.7502654,0.0046243354169821
1746442162.778993,0.0045854507550608
1746442162.80772,0.0046149339033489
1746442162.8364472,0.0047288304806298
1746442162.8651743,0.0049053533827207
1746442162.8939018,0.0050097349454976
1746442162.922629,0.0047989346808377
1746442162.9513564,0.0048460767942741
1746442162.9800837,0.004959587856753
1746442163.008811,0.0048593501490471
1746442163.0375383,0.0049115111652782
1746442163.0662656,0.0049344247250999
1746442163.0949929,0.0050064253658257
1746442163.1237202,0.004968014227306
1746442163.1524477,0.0050297595515464
1746442163.1811748,0.0049736047102742
1746442163.209902,0.0049850386488614
1746442163.238629,0.0048323237208892
1746442163.2673566,0.0047720108759719
1746442163.296084,0.0047162830064079
1746442163.3248112,0.0047604309259944
1746442163.3535385,0.0046114109468725
1746442163.3822658,0.0047011773261184
1746442163.410993,0.0047929555800187
1746442163.4397204,0.0047473469118713
1746442163.4684477,0.0044783807489
1746442163.497175,0.0047454728130299
1746442163.5259025,0.0046801041068202
1746442163.5546296,0.0046765996922938
1746442163.5833569,0.0047254947782259
1746442163.6120842,0.0045558188811401
1746442163.6408114,0.0049755015942424
1746442163.6695387,0.0049817566688901
1746442163.698266,0.0048127274290799
1746442163.726993,0.0048487244706411
1746442163.7557206,0.0050117298075272
1746442163.784448,0.0048541511234926
1746442163.8131752,0.0050440543985486
1746442163.8419025,0.0050118787997618
1746442163.8706298,0.0051956883033263
1746442163.899357,0.0051195154075548
1746442163.9280844,0.0057159835717282
1746442163.9568117,0.006188897665463
1746442163.985539,0.0084241742210382
1746442164.0142665,0.0110330343179885
1746442164.0429935,0.0144748721481741
1746442164.0717208,0.0151782742490315
1746442164.100448,0.0157912823228512
1746442164.1291754,0.016035686810556
1746442164.1579027,0.0165558886491384
1746442164.18663,0.0165148138902135
1746442164.2153573,0.0148893580834308
1746442164.2440846,0.0129409937898652
1746442164.272812,0.0155263404979631
1746442164.3015392,0.0156108255984944
1746442164.3302665,0.0151425392256723
1746442164.3589938,0.0160179593189927
1746442164.387721,0.0152970400280508
1746442164.4164484,0.0152201178221731
1746442164.4451756,0.0147112084481465
1746442164.473903,0.0115846667805796
1746442164.5026302,0.0111224432403983
1746442164.5313575,0.0113278253702803
1746442164.5600848,0.0090813125695565
1746442164.588812,0.0089490086557684
1746442164.6175394,0.0087341942134977
1746442164.6462667,0.0084801809292215
1746442164.674994,0.0079860069684487
1746442164.7037213,0.0070925085651976
1746442164.7324486,0.0063847233158316
1746442164.761176,0.0065124693446783
1746442164.7899032,0.0064345006043123
1746442164.8186305,0.0056614003671714
1746442164.8473575,0.0051795438338762
1746442164.876085,0.0049354374487737
1746442164.9048123,0.0051324565490068
1746442164.9335396,0.0054733525691441
1746442164.962267,0.0051811326246525
1746442164.9909942,0.0049962306420712
1746442165.0197215,0.0052334530801276
1746442165.0484488,0.0057265493229145
1746442165.077176,0.0059138795357769
1746442165.1059034,0.0056013759919979
1746442165.134631,0.0056735532084361
1746442165.163358,0.0057615399234497
1746442165.1920853,0.0059098394871236
1746442165.2208126,0.0057503526257108
1746442165.24954,0.0054176444290044
1746442165.2782671,0.0056675871720633
1746442165.3069944,0.0058598020282314
1746442165.3357215,0.0054999222347679
1746442165.364449,0.0057305235956607
1746442165.3931763,0.0057034201154865
1746442165.4219036,0.0055745739136908
1746442165.450631,0.0054873440948549
1746442165.4793582,0.0053814189775667
1746442165.5080855,0.0055223287054417
1746442165.5368128,0.0058623675655142
1746442165.56554,0.0058117685827088
1746442165.5942674,0.0056558189861062
1746442165.622995,0.0059156257468547
1746442165.651722,0.0058016966920359
1746442165.6804492,0.0054762930357973
1746442165.7091763,0.0058290621521503
1746442165.7379038,0.0057322998223432
1746442165.7666311,0.0055703856844199
1746442165.7953584,0.0058089797212925
1746442165.8240857,0.0058108346175595
1746442165.852813,0.005841511402784
1746442165.8815403,0.0060381515733701
1746442165.9102676,0.0054548043743032
1746442165.938995,0.0054955136260512
1746442165.9677222,0.0055509064163193
1746442165.9964497,0.0052285179665082
1746442166.0251768,0.0053989599737521
1746442166.053904,0.0055361745886481
1746442166.082631,0.0056683336601401
1746442166.1113586,0.0057842435400135
1746442166.140086,0.0056986442291811
1746442166.1688132,0.0056242712354573
1746442166.1975403,0.0061569827409552
1746442166.2262678,0.0059145322535866
1746442166.254995,0.0057990101125177
1746442166.2837224,0.0057680523923824
1746442166.3124497,0.0057475938466909
1746442166.341177,0.0057626383195965
1746442166.3699045,0.0058235961475807
1746442166.3986316,0.0052819225280148
1746442166.4273589,0.005399217118886
1746442166.4560862,0.0053736645475023
1746442166.4848137,0.0051303348331651
1746442166.5135407,0.0052149376928614
1746442166.542268,0.0054144922192186
1746442166.570995,0.0052616158608295
1746442166.5997226,0.0052954158102846
1746442166.62845,0.0053335658888199
1746442166.6571772,0.0052906359734964
1746442166.6859045,0.005506541191184
1746442166.7146318,0.0053759742440612
1746442166.743359,0.0051176337919201
1746442166.7720864,0.0054333763485416
1746442166.8008137,0.0054753041755035
1746442166.829541,0.0054000173976474
1746442166.8582685,0.0056165249282587
1746442166.8869956,0.0051951646914178
1746442166.9157228,0.0053369330092844
1746442166.94445,0.0054437032112886
1746442166.9731774,0.0052419924429461
1746442167.0019047,0.0050034305406559
1746442167.030632,0.0053073278643466
1746442167.0593593,0.0051521658151825
1746442167.0880866,0.0052586169273932
1746442167.116814,0.0051870080023863
1746442167.1455412,0.0053006556320543
1746442167.1742685,0.0052641890073938
1746442167.2029958,0.0052153392334577
1746442167.231723,0.0052435792574748
1746442167.2604504,0.0050990594685145
1746442167.2891777,0.0052167569896002
1746442167.317905,0.0052441917475049
1746442167.3466322,0.0052947045806978
1746442167.3753595,0.0055416055951362
1746442167.4040868,0.0053455430087285
1746442167.432814,0.005351273420402
1746442167.4615414,0.0054529947687795
1746442167.4902687,0.0053883760249686
1746442167.518996,0.0051095237201594
1746442167.5477233,0.0056832851736317
1746442167.5764506,0.0054517399993751
1746442167.605178,0.0057931420875698
1746442167.6339052,0.0055163650197715
1746442167.6626325,0.0055160986085773
1746442167.6913598,0.0057178875421161
1746442167.720087,0.0056839420404941
1746442167.7488143,0.0050415877546222
1746442167.7775416,0.005065620396111
1746442167.806269,0.0049767160362182
1746442167.8349962,0.005110269342762
1746442167.8637235,0.0050594104577181
1746442167.8924508,0.0049223657443446
1746442167.921178,0.0050735909576403
1746442167.9499054,0.0054344243106998
1746442167.9786327,0.0071064431371609
1746442168.00736,0.0124680883173194
1746442168.0360873,0.0138375254865134
1746442168.0648146,0.0172593654460029
1746442168.093542,0.0198153879263296
1746442168.1222692,0.0206535513611483
1746442168.1509964,0.0208286202676274
1746442168.1797235,0.0206338402276151
1746442168.208451,0.0185640083461898
1746442168.2371783,0.0179997591440089
1746442168.2659056,0.0171935696731525
1746442168.294633,0.0189836508136852
1746442168.3233602,0.0191186078907197
1746442168.3520875,0.0192943653644827
1746442168.3808148,0.0193819752837481
1746442168.409542,0.01956339496198
1746442168.4382694,0.0192398104375498
1746442168.466997,0.0176504164748993
1746442168.495724,0.0121758006985391
1746442168.5244513,0.0120247807325334
1746442168.5531783,0.0118098001666486
1746442168.5819058,0.0110954682492692
1746442168.6106331,0.0097356907884428
1746442168.6393604,0.0088811953286527
1746442168.6680875,0.0087569277942689
1746442168.696815,0.0089492850703223
1746442168.7255423,0.0081332817645619
1746442168.7542696,0.0074931631830905
1746442168.782997,0.0075343430322842
1746442168.8117242,0.0073085400401856
1746442168.8404517,0.0076562236347879
1746442168.8691788,0.006829023353488
1746442168.897906,0.0062704703549368
1746442168.9266334,0.0057538387441716
1746442168.955361,0.005883879865849
1746442168.984088,0.0059559760532686
1746442169.0128152,0.0058246612656905
1746442169.0415423,0.0054059741021665
1746442169.0702698,0.0052820207186565
1746442169.098997,0.0059001281632835
1746442169.1277244,0.0056820021479885
1746442169.1564517,0.0057944131162408
1746442169.185179,0.0057101893271924
1746442169.2139063,0.0054493771864753
1746442169.2426336,0.0059771835217324
1746442169.2713609,0.0058151949057469
1746442169.3000882,0.0054766272001301
1746442169.3288157,0.0057261998107507
1746442169.3575428,0.00551032945819
1746442169.38627,0.0055139522988979
1746442169.414997,0.0055771213967909
1746442169.4437246,0.005094217675531
1746442169.472452,0.0050874122164849
1746442169.5011792,0.0050249506155583
1746442169.5299065,0.0049518086841503
1746442169.5586338,0.0049468224406393
1746442169.587361,0.0050454960621549
1746442169.6160884,0.0049593939954928
1746442169.6448157,0.004903355701052
1746442169.673543,0.0050282952722705
1746442169.7022705,0.005123080898367
1746442169.7309976,0.0052931213467057
1746442169.7597249,0.005377072439863
1746442169.788452,0.0051200394647449
1746442169.8171794,0.0049476791546287
1746442169.8459067,0.0052227125050254
1746442169.874634,0.00508879469663
1746442169.903361,0.0051293671701028
1746442169.9320886,0.0049904314359246
1746442169.960816,0.0052897803753278
1746442169.9895432,0.0053053550395829
1746442170.0182705,0.0053276989108551
1746442170.0469978,0.0054172301877092
1746442170.075725,0.0053495487120856
1746442170.1044524,0.0053978457622938
1746442170.1331797,0.0053914724518921
1746442170.161907,0.0049913305085201
1746442170.1906345,0.0050602393712122
1746442170.2193615,0.0051305680240295
1746442170.2480888,0.0052577319660582
1746442170.276816,0.0052635680798042
1746442170.3055434,0.0050906347076123
1746442170.3342707,0.0051496341204764
1746442170.362998,0.0054303485406341
1746442170.3917253,0.0053557695705496
1746442170.4204526,0.0052438929197786
1746442170.44918,0.0051652473929913
1746442170.4779072,0.0052185478510654
1746442170.5066345,0.0052457471388455
1746442170.5353618,0.005314728502312
1746442170.564089,0.0049973318440059
1746442170.5928164,0.0054908918398047
1746442170.6215436,0.0055637842661994
1746442170.650271,0.0055985372907726
1746442170.6789982,0.005517503212741
1746442170.7077255,0.0053675344127694
1746442170.7364528,0.0053902365147841
1746442170.76518,0.0053113169463362
1746442170.7939074,0.0050128129608541
1746442170.8226347,0.005273311627778
1746442170.851362,0.0050784569817994
1746442170.8800893,0.0052361324001415
1746442170.9088166,0.0052147499977668
1746442170.937544,0.0053749860430979
1746442170.9662712,0.0053785079599582
1746442170.9949985,0.0054737874794703
1746442171.0237255,0.0051279139056044
1746442171.052453,0.0053368127620568
1746442171.0811803,0.0053325591770923
1746442171.1099076,0.005267299789069
1746442171.138635,0.0051365625539529
1746442171.1673622,0.0052220476708304
1746442171.1960895,0.0053204146526857
1746442171.2248168,0.0055442782682512
1746442171.253544,0.0052954607213992
1746442171.2822714,0.0053943851833204
1746442171.310999,0.0056668830764949
1746442171.339726,0.0056237489439445
1746442171.3684533,0.0054452577116819
1746442171.3971806,0.005486081023217
1746442171.425908,0.0052906418313903
1746442171.4546351,0.0056486718982501
1746442171.4833624,0.0054303510281185
1746442171.5120895,0.005326239776737
1746442171.540817,0.0054107125387953
1746442171.5695443,0.0054542735251479
1746442171.5982716,0.0055510865074029
1746442171.626999,0.0056181083630301
1746442171.6557262,0.0053616445330965
1746442171.6844535,0.0054809690173039
1746442171.7131808,0.0054843461755307
1746442171.741908,0.0055658196841899
1746442171.7706354,0.0055411135218459
1746442171.799363,0.005291546165638
1746442171.82809,0.0054163897421864
1746442171.8568172,0.0053356549238912
1746442171.8855443,0.005400766347741
1746442171.9142718,0.0053168454861228
1746442171.9429991,0.0053526570677692
1746442171.9717264,0.0099392113950059
1746442172.0004537,0.016143395985852
1746442172.029181,0.0176779888623228
1746442172.0579083,0.0211521814097489
1746442172.0866356,0.0223383222416325
1746442172.115363,0.022906267906585
1746442172.1440902,0.0235787296147372
1746442172.1728177,0.0251606387630409
1746442172.2015448,0.0247808444283629
1746442172.230272,0.0238156467584175
1746442172.258999,0.0223521274850862
1746442172.2877266,0.0229688632241027
1746442172.316454,0.0226249637935877
1746442172.3451812,0.0220596207702275
1746442172.3739083,0.0182091610235098
1746442172.4026358,0.0152284821258889
1746442172.431363,0.0145577740264355
1746442172.4600904,0.0123472871966098
1746442172.4888177,0.0091436200342889
1746442172.517545,0.0086575266590131
1746442172.5462725,0.0085415188675534
1746442172.5749996,0.0077263087125642
1746442172.6037269,0.00662063715259
1746442172.6324542,0.0059365299889055
1746442172.6611814,0.0060027377643143
1746442172.6899087,0.0059302503771889
1746442172.718636,0.0061840194045741
1746442172.747363,0.0058357579281899
1746442172.7760906,0.0052867869070908
1746442172.804818,0.0054361052712738
1746442172.8335452,0.0064365461991869
1746442172.8622725,0.0067354796432488
1746442172.8909998,0.0065780545756216
1746442172.919727,0.0062213440131902
1746442172.9484544,0.006264692881907
1746442172.9771817,0.0064541147811222
1746442173.005909,0.0064639563293065
1746442173.0346365,0.0056262943810681
1746442173.0633636,0.0052404350843196
1746442173.0920908,0.005801084536805
1746442173.120818,0.0058369351072314
1746442173.1495454,0.0055498312611986
1746442173.1782727,0.0058094661724733
1746442173.207,0.0056491887383853
1746442173.2357273,0.0055301962231463
1746442173.2644546,0.0055605795811407
1746442173.293182,0.0053185424255314
1746442173.3219092,0.0053028580811427
1746442173.3506365,0.0056738070299395
1746442173.3793638,0.0055795940120473
1746442173.408091,0.0054860710780804
1746442173.4368184,0.0055563880761646
1746442173.4655457,0.0056957189144958
1746442173.494273,0.005547255737684
1746442173.5230002,0.0055475346513748
1746442173.5517275,0.0054916466972132
1746442173.5804548,0.0051413665439832
1746442173.609182,0.0053006767438364
1746442173.6379094,0.0051832292678961
1746442173.6666367,0.0050614177830414
1746442173.695364,0.0053224808169691
1746442173.7240913,0.005131270160563
1746442173.7528186,0.0047983852670623
1746442173.781546,0.004958708642302
1746442173.8102732,0.0051064482070501
1746442173.8390005,0.0052318127544701
1746442173.8677278,0.0051121981264716
1746442173.896455,0.0048617336283636
1746442173.9251823,0.0051649537497032
1746442173.9539096,0.0051409577187791
1746442173.982637,0.004991202144984
1746442174.0113642,0.0051869974945835
1746442174.0400915,0.0050359699098483
1746442174.0688188,0.0052351191669803
1746442174.097546,0.0052081359855643
1746442174.1262734,0.0051982923465915
1746442174.1550007,0.0053715642747716
1746442174.183728,0.0054038142804282
1746442174.2124553,0.0051659549299461
1746442174.2411826,0.0052254272591067
1746442174.26991,0.0050644712501121
1746442174.2986372,0.0051829402358783
1746442174.3273644,0.0049401634749955
1746442174.3560915,0.0048188553175428
1746442174.384819,0.0049795596196426
1746442174.4135463,0.004722517245471
1746442174.4422736,0.0046139683204135
1746442174.471001,0.0046388936402891
1746442174.4997282,0.0046756902919244
1746442174.5284555,0.0046879738525678
1746442174.5571828,0.0045647340990318
1746442174.58591,0.0046257607567285
1746442174.6146374,0.004787609668587
1746442174.643365,0.0050001738315416
1746442174.672092,0.0051054206105723
1746442174.7008193,0.0049874780802964
1746442174.7295463,0.0049036797084132
1746442174.7582738,0.0051029366423678
1746442174.7870011,0.0051739404774585
1746442174.8157284,0.0051702289620493
1746442174.8444557,0.0050296689543787
1746442174.873183,0.0048466859176646
1746442174.9019103,0.0049947867751619
1746442174.9306376,0.0049843017097342
1746442174.959365,0.0051245496108057
1746442174.9880922,0.0049371713572823
1746442175.0168197,0.0048355920450225
1746442175.0455468,0.0050028424463812
1746442175.074274,0.0052976226615406
1746442175.1030014,0.0051513779017432
1746442175.1317286,0.0051974523959409
1746442175.160456,0.0052245393185468
1746442175.1891832,0.0052122966623157
1746442175.2179103,0.0054543724881591
1746442175.2466378,0.0053265924514465
1746442175.275365,0.0052041727700627
1746442175.3040924,0.0050706917798498
1746442175.3328197,0.0053345572165514
1746442175.361547,0.0052800661841163
1746442175.3902743,0.0052310005415398
1746442175.4190016,0.0050317234821148
1746442175.4477289,0.0052018974781402
1746442175.4764562,0.0050895598722108
1746442175.5051837,0.0053009943802871
1746442175.5339108,0.0051443657839402
1746442175.562638,0.004972090208606
1746442175.591365,0.0048122411318411
1746442175.6200926,0.0050442198258605
1746442175.64882,0.0049669582961839
1746442175.6775472,0.0051852215996302
1746442175.7062745,0.0049808069008159
1746442175.7350018,0.0049279375039525
1746442175.763729,0.0049355423331397
1746442175.7924564,0.0053003939644704
1746442175.8211837,0.0051931464580048
1746442175.849911,0.0050251888885428
1746442175.8786385,0.0048084447029337
1746442175.9073656,0.0053119011420747
1746442175.9360929,0.0082806045521584
1746442175.96482,0.0115832248515315
1746442175.9935474,0.014346633148222
1746442176.0222747,0.0166015770677616
1746442176.051002,0.0190739055383797
1746442176.0797293,0.0195941675841411
1746442176.1084566,0.0198245286568698
1746442176.137184,0.0201395096297925
1746442176.1659112,0.0202768907293239
1746442176.1946385,0.0190319018690793
1746442176.2233658,0.0181445717588758
1746442176.252093,0.0170688767411779
1746442176.2808204,0.0174085208911782
1746442176.3095477,0.0172489175499325
1746442176.338275,0.0158797772847946
1746442176.3670022,0.0137157758101738
1746442176.3957295,0.0133731667473719
1746442176.4244568,0.0110327358331217
1746442176.453184,0.0097964588134096
1746442176.4819114,0.008144198368389
1746442176.5106387,0.0077073721141933
1746442176.539366,0.0077619326059654
1746442176.5680933,0.0073433050203811
1746442176.5968206,0.0066606358531879
1746442176.625548,0.0063972986068813
1746442176.6542752,0.0060532905285354
1746442176.6830025,0.0061044733145429
1746442176.7117298,0.0063058251042943
1746442176.740457,0.005467371357142
1746442176.7691844,0.0056840844633729
1746442176.7979116,0.0056385356099737
1746442176.826639,0.0057617681158261
1746442176.8553662,0.0062346124385816
1746442176.8840935,0.0064713731591623
1746442176.9128208,0.0061860727232483
1746442176.941548,0.0063558252444464
1746442176.9702754,0.0062623149215342
1746442176.9990027,0.0062017697004573
1746442177.02773,0.0061511957450009
1746442177.0564573,0.0063656917476118
1746442177.0851846,0.0063324920007294
1746442177.113912,0.0066784570660789
1746442177.1426392,0.006627807394475
1746442177.1713665,0.0062731354426123
1746442177.2000935,0.0064348371575484
1746442177.228821,0.0065310765967278
1746442177.2575483,0.0063935089032971
1746442177.2862756,0.0059105575855217
1746442177.315003,0.0056819384132969
1746442177.3437302,0.0057074065603442
1746442177.3724575,0.0057346449002626
1746442177.4011848,0.0059405478272714
1746442177.429912,0.0059225624208528
1746442177.4586394,0.0055890474361868
1746442177.487367,0.0060115508762633
1746442177.516094,0.0059040186064217
1746442177.5448213,0.0059834066681293
1746442177.5735486,0.006036647415052
1746442177.6022758,0.0059109435279987
1746442177.6310031,0.0059040119509226
1746442177.6597304,0.0061453451726012
1746442177.6884575,0.005947305141674
1746442177.717185,0.0062305882193403
1746442177.7459123,0.0059264205749783
1746442177.7746396,0.0056246618325217
1746442177.803367,0.0055532227717514
1746442177.8320942,0.005766448648442
1746442177.8608215,0.0058616272436792
1746442177.8895488,0.0060548766632756
1746442177.918276,0.0058122624183748
1746442177.9470034,0.0058139180273818
1746442177.975731,0.0061834315778722
1746442178.004458,0.0063453501308726
1746442178.0331852,0.0061762103426369
1746442178.0619123,0.0061727778064433
1746442178.0906398,0.0059157454190765
1746442178.1193671,0.0059679783438838
1746442178.1480944,0.0060702620389365
1746442178.1768217,0.0058016982287561
1746442178.205549,0.0056367464051553
1746442178.2342763,0.0055256218397198
1746442178.2630036,0.0057924394058695
1746442178.2917309,0.0054911249090612
1746442178.3204582,0.005510644428422
1746442178.3491857,0.0055731673074044
1746442178.3779128,0.0055518742946726
1746442178.40664,0.0055903710338408
1746442178.435367,0.0054557892147621
1746442178.4640946,0.0054223667243911
1746442178.492822,0.0054408499336986
1746442178.5215492,0.0055009483448052
1746442178.5502765,0.0053613287231332
1746442178.5790038,0.0055947451220509
1746442178.607731,0.0054989437273161
1746442178.6364584,0.0057936595635165
1746442178.6651857,0.0053605299326457
1746442178.693913,0.0053534112594655
1746442178.7226405,0.005458730357885
1746442178.7513676,0.0054652386749329
1746442178.7800949,0.0054188816893819
1746442178.8088222,0.0052833586392107
1746442178.8375494,0.0051065049851238
1746442178.8662767,0.0053563565408636
1746442178.895004,0.0055955859889332
1746442178.923731,0.0055028635479186
1746442178.9524586,0.0053782402985925
1746442178.981186,0.005265747923057
1746442179.0099132,0.005205692775304
1746442179.0386405,0.005273389460201
1746442179.0673678,0.0052167578944752
1746442179.096095,0.0051234051001388
1746442179.1248224,0.0051767798972049
1746442179.1535497,0.0052236461816532
1746442179.182277,0.0052889928496944
1746442179.2110045,0.0055495758872775
1746442179.2397316,0.0053688523180185
1746442179.2684588,0.005143165134659
1746442179.297186,0.0051505266886129
1746442179.3259134,0.0051497728234186
1746442179.3546407,0.0053918153312594
1746442179.383368,0.0054237655684421
1746442179.4120953,0.0054432377101775
1746442179.4408226,0.0054719420179359
1746442179.46955,0.0054089725285568
1746442179.4982772,0.0053685551324907
1746442179.5270045,0.005604606644478
1746442179.5557318,0.00536672959863
1746442179.584459,0.0051523643370985
1746442179.6131864,0.005074920167799
1746442179.6419137,0.0052708820702256
1746442179.670641,0.0050804015686939
1746442179.6993682,0.0052859662667787
1746442179.7280955,0.0050952186844536
1746442179.7568228,0.0051548035415706
1746442179.78555,0.005085592716511
1746442179.8142774,0.0052867366651716
1746442179.8430047,0.0050397867702194
1746442179.871732,0.0053548725836957
1746442179.9004593,0.005286609372314
1746442179.9291866,0.0055794032171986
1746442179.957914,0.0081204723802911
1746442179.9866412,0.0135581619152701
1746442180.0153685,0.0159921274495561
1746442180.0440958,0.0198020249104509
1746442180.072823,0.0219236415734888
1746442180.1015503,0.0221856046927614
1746442180.1302776,0.0230246506255973
1746442180.159005,0.0235129284730894
1746442180.1877322,0.0227735207997938
1746442180.2164595,0.0218442741543443
1746442180.2451868,0.0193603129370405
1746442180.273914,0.0183745140659828
1746442180.3026414,0.0184908191212294
1746442180.3313687,0.0175820034514809
1746442180.360096,0.0162026388511586
1746442180.3888233,0.0139731313579012
1746442180.4175506,0.0135825278426199
1746442180.446278,0.0122920798025509
1746442180.4750051,0.0108424773930763
1746442180.5037324,0.0101189949804039
1746442180.5324595,0.0100339742386735
1746442180.561187,0.0094314749046462
1746442180.5899143,0.0082420531086464
1746442180.6186416,0.0069036338540785
1746442180.647369,0.0062798304513516
1746442180.6760962,0.0057296127565145
1746442180.7048235,0.0057759739747657
1746442180.7335508,0.0053853562169416
1746442180.762278,0.0055770834073689
1746442180.7910054,0.0061061802311551
1746442180.819733,0.0059063692099296
1746442180.84846,0.0057618000615749
1746442180.8771873,0.005685251420899
1746442180.9059143,0.0058655873998457
1746442180.9346418,0.0062135635013153
1746442180.9633691,0.0059197820402278
1746442180.9920964,0.0054990472198798
1746442181.0208237,0.005405543020352
1746442181.049551,0.0057429069381563
1746442181.0782783,0.0057735122595657
1746442181.1070056,0.0056996849446374
1746442181.135733,0.0052902238032586
1746442181.1644602,0.0051462625138978
1746442181.1931877,0.0050578308634446
1746442181.2219148,0.0055604148489176
1746442181.250642,0.0054430943858828
1746442181.2793694,0.0052938070139224
1746442181.3080966,0.0053068351535489
1746442181.336824,0.005295933099931
1746442181.3655512,0.0055457243761691
1746442181.3942783,0.0058540129417965
1746442181.4230058,0.0054202487551979
1746442181.451733,0.0056877172740693
1746442181.4804604,0.005779917586632
1746442181.5091877,0.0064999188695565
1746442181.537915,0.0067216032641693
1746442181.5666423,0.0067692803389779
1746442181.5953696,0.0067609486580089
1746442181.6240969,0.0073669912617746
1746442181.6528242,0.0073019884313556
1746442181.6815517,0.0072313764607472
1746442181.7102787,0.0065088606509761
1746442181.739006,0.006443788691346
1746442181.767733,0.0060159280335105
1746442181.7964606,0.0056142857600804
1746442181.825188,0.0056639465716957
1746442181.8539152,0.0055384597923008
1746442181.8826425,0.005852935937187
1746442181.9113698,0.0061007870220848
1746442181.940097,0.0057227053908583
1746442181.9688244,0.0056988788518125
1746442181.9975517,0.005531785695612
1746442182.026279,0.0053660801101319
1746442182.0550065,0.0053288381580724
1746442182.0837336,0.0054312439716206
1746442182.1124609,0.0060024885264262
1746442182.141188,0.0063021728972367
1746442182.1699154,0.0063520134938502
1746442182.1986427,0.0065221049044747
1746442182.22737,0.0063887615217406
1746442182.2560973,0.0063022689362851
1746442182.2848246,0.0060852686727776
1746442182.313552,0.0053451788164697
1746442182.3422792,0.0050781992230013
1746442182.3710065,0.0050372394027507
1746442182.3997338,0.0049599149013867
1746442182.428461,0.0047897586189939
1746442182.4571884,0.0049452432275823
1746442182.4859157,0.0048206877672511
1746442182.514643,0.0048103497217043
1746442182.5433702,0.0048769169921232
1746442182.5720975,0.0052051463459802
1746442182.6008248,0.0049855002492762
1746442182.629552,0.0051161726596703
1746442182.6582794,0.0051622731309801
1746442182.6870067,0.0052430852952273
1746442182.715734,0.0051547777882795
1746442182.7444613,0.005172409053122
1746442182.7731886,0.0049748753532481
1746442182.801916,0.0050550438336762
1746442182.8306432,0.005165753990394
1746442182.8593705,0.0050084850538601
1746442182.8880978,0.00512356250771
1746442182.916825,0.0051911638712761
1746442182.9455523,0.00527280381145
1746442182.9742796,0.0052430213169964
1746442183.003007,0.0052207862280115
1746442183.0317342,0.0051680308401548
1746442183.0604615,0.0056612663026756
1746442183.0891888,0.00548538852155
1746442183.117916,0.005485136523405
1746442183.1466434,0.0052696979898513
1746442183.1753707,0.0052928362323608
1746442183.204098,0.0053978676589752
1746442183.2328253,0.0055737199113502
1746442183.2615526,0.0050777594703405
1746442183.29028,0.0050527797726963
1746442183.3190072,0.0053801046570183
1746442183.3477345,0.0053431056321912
1746442183.3764615,0.0053578006308024
1746442183.405189,0.0051590267581109
1746442183.4339163,0.0047204935527487
1746442183.4626436,0.0049437531553995
1746442183.491371,0.0050577211378421
1746442183.5200982,0.0049149673954152
1746442183.5488255,0.0047404504759386
1746442183.5775528,0.0049432990562449
1746442183.60628,0.0053823993492928
1746442183.6350074,0.005701875556528
1746442183.663735,0.0054659698398675
1746442183.692462,0.005233422913735
1746442183.7211893,0.0051749078751359
1746442183.7499166,0.0054520404362399
1746442183.7786438,0.005595420885536
1746442183.8073711,0.0053307625899846
1746442183.8360984,0.0051282895348765
1746442183.8648255,0.0052661877220326
1746442183.893553,0.0052590497020932
1746442183.9222803,0.0054324986216715
1746442183.9510076,0.0057165108565889
1746442183.979735,0.0101546304804025
1746442184.0084622,0.0127122793312837
1746442184.0371895,0.0141727880550409
1746442184.0659168,0.0177541277511725
1746442184.094644,0.0183639476923922
1746442184.1233714,0.0192240456316909
1746442184.152099,0.0203144672837973
1746442184.180826,0.0186583541230563
1746442184.2095532,0.0188279267443225
1746442184.2382803,0.0185174282935752
1746442184.2670078,0.0173787367550696
1746442184.2957351,0.017904725725769
1746442184.3244624,0.0170568994500374
1746442184.3531897,0.0167286670645811
1746442184.381917,0.0157225368838015
1746442184.4106443,0.0151052314847866
1746442184.4393716,0.0142828733586926
1746442184.4680989,0.011985356245658
1746442184.4968262,0.0107699420537076
1746442184.5255537,0.0107045615468498
1746442184.5542808,0.0095261652374175
1746442184.583008,0.0094912981849869
1746442184.611735,0.0087277719115651
1746442184.6404626,0.0085852019683534
1746442184.66919,0.0076014199467468
1746442184.6979172,0.0069588913084162
1746442184.7266445,0.0066158815201469
1746442184.7553718,0.0060220452676586
1746442184.784099,0.0061818074823547
1746442184.8128264,0.0064619389363444
1746442184.8415537,0.0063945113336578
1746442184.870281,0.0066244522389242
1746442184.8990085,0.0065775742034076
1746442184.9277356,0.0066312159802712
1746442184.9564629,0.0067204634597254
1746442184.9851902,0.0061668641916998
1746442185.0139174,0.0058323065717528
1746442185.0426447,0.0058883726353209
1746442185.071372,0.0059431577089679
1746442185.100099,0.0061382567244725
1746442185.1288266,0.0059720403136775
1746442185.157554,0.005847733238752
1746442185.1862812,0.0059148720232344
1746442185.2150085,0.0058997823859347
1746442185.2437358,0.0059144376291114
1746442185.272463,0.005460300184694
1746442185.3011904,0.0053529134512479
1746442185.3299177,0.0056147940358604
1746442185.358645,0.0058670370731263
1746442185.3873725,0.0058204549967037
1746442185.4160995,0.0057866364694177
1746442185.4448268,0.0057263804637795
1746442185.473554,0.0054379018780589
1746442185.5022814,0.0056607964623383
1746442185.5310087,0.0056018249122345
1746442185.559736,0.0053279802653176
1746442185.5884633,0.0053214156486333
1746442185.6171906,0.0051720316318704
1746442185.645918,0.0054843767920717
1746442185.6746452,0.0059902174347118
1746442185.7033725,0.0058082938528427
1746442185.7320998,0.0055038504804742
1746442185.760827,0.0055722497058229
1746442185.7895544,0.0057125613789397
1746442185.8182817,0.0058704365034819
1746442185.847009,0.0056711560500024
1746442185.8757362,0.0058336218406144
1746442185.9044635,0.005777940898474
1746442185.9331908,0.005856605106366
1746442185.961918,0.005958236328836
1746442185.9906454,0.0056969565106951
1746442186.0193727,0.0055371914379743
1746442186.0481,0.0056702548485515
1746442186.0768273,0.0052620264829693
1746442186.1055546,0.0053066930653898
1746442186.134282,0.0052468702630949
1746442186.1630092,0.0049758670690208
1746442186.1917365,0.0055741484290731
1746442186.2204638,0.0054632538923866
1746442186.249191,0.0053385448517187
1746442186.2779183,0.0053072192982014
1746442186.3066456,0.0053998727075977
1746442186.335373,0.0055302361910129
1746442186.3641002,0.0057903211892885
1746442186.3928275,0.005126044475517
1746442186.4215548,0.0055007353047691
1746442186.450282,0.0054590779586392
1746442186.4790094,0.0053986562358954
1746442186.5077367,0.0051892813949894
1746442186.536464,0.005232798658655
1746442186.5651913,0.0052553669819102
1746442186.5939186,0.0053845378808351
1746442186.622646,0.0052388937024668
1746442186.6513731,0.0052059088947807
1746442186.6801004,0.0051570702921787
1746442186.7088275,0.0052160403639887
1746442186.737555,0.0050735564003561
1746442186.7662823,0.0051064733304157
1746442186.7950096,0.0050228184928977
1746442186.823737,0.0053029133035408
1746442186.8524642,0.005134717989195
1746442186.8811915,0.0052528123703134
1746442186.9099188,0.0051873199180864
1746442186.938646,0.0051602566122866
1746442186.9673734,0.0050580534739954
1746442186.996101,0.0050572960292236
1746442187.024828,0.0045831620435058
1746442187.0535553,0.0050609266532017
1746442187.0822823,0.0050422363214234
1746442187.1110098,0.0049478086422841
1746442187.1397371,0.0049628442141028
1746442187.1684644,0.005222377952778
1746442187.1971917,0.0052697737989494
1746442187.225919,0.0054494302709944
1746442187.2546463,0.0048330000385158
1746442187.2833736,0.0049474373563535
1746442187.312101,0.0050695694562402
1746442187.3408282,0.0050425154412931
1746442187.3695557,0.0047212610682084
1746442187.3982828,0.0046220553344558
1746442187.42701,0.0047065341249847
1746442187.4557374,0.004790978163934
1746442187.4844646,0.0045313937346847
1746442187.513192,0.0046914995485594
1746442187.5419192,0.0048235159875211
1746442187.5706463,0.0046883082098715
1746442187.5993738,0.0047314661081827
1746442187.628101,0.0046631613723096
1746442187.6568284,0.0046688458467469
1746442187.6855557,0.0048002869702036
1746442187.714283,0.0047526260267347
1746442187.7430103,0.0045200716051136
1746442187.7717376,0.0046856960722259
1746442187.8004649,0.004820505002151
1746442187.8291922,0.0046253415425075
1746442187.8579197,0.004780082000625
1746442187.8866467,0.0047806414737443
1746442187.915374,0.0047415135018687
1746442187.944101,0.0050801871544305
1746442187.9728286,0.0056019601404591
1746442188.001556,0.0065036659925353
1746442188.0302832,0.0092846227906742
1746442188.0590105,0.0103628535088138
1746442188.0877378,0.0110668286096391
1746442188.116465,0.0123390110045345
1746442188.1451924,0.0145673122380206
1746442188.1739197,0.0155208390570601
1746442188.202647,0.0165153026974004
1746442188.2313745,0.0172839664800166
1746442188.2601016,0.0186302945480263
1746442188.2888288,0.0200604712382136
1746442188.317556,0.0198578014555865
1746442188.3462834,0.0193634338626439
1746442188.3750107,0.0191832753026132
1746442188.403738,0.0187833683937492
1746442188.4324653,0.017747856569165
1746442188.4611926,0.0157490403773553
1746442188.48992,0.0145397617169406
1746442188.5186472,0.0145412085089671
1746442188.5473745,0.0134453766394328
1746442188.5761018,0.0123942745321761
1746442188.604829,0.0110156917834326
1746442188.6335564,0.0107395915350759
1746442188.6622837,0.0096568045952764
1746442188.691011,0.0088235387622586
1746442188.7197382,0.0072203707773962
1746442188.7484655,0.0070449243297992
1746442188.7771928,0.007363123251502
1746442188.80592,0.0068812065216702
1746442188.8346474,0.0062283502116177
1746442188.8633747,0.0064959017102491
1746442188.892102,0.0067740788509674
1746442188.9208293,0.0069917178515902
1746442188.9495566,0.0064456605597758
1746442188.978284,0.0057638289685704
1746442189.0070112,0.0061014722603271
1746442189.0357385,0.006224471777859
1746442189.0644658,0.0057948864222624
1746442189.093193,0.0058935742187229
1746442189.1219203,0.0057285795664392
1746442189.1506476,0.005745142618345
1746442189.179375,0.0057322337256976
1746442189.2081022,0.005780028078984
1746442189.2368295,0.0058601619978637
1746442189.2655568,0.0059042004878379
1746442189.294284,0.0057781122795889
1746442189.3230114,0.0056176838086355
1746442189.3517387,0.005339611165449
1746442189.380466,0.0056305697468866
1746442189.4091933,0.0053955655318444
1746442189.4379206,0.0053388252035864
1746442189.466648,0.0052695421642426
1746442189.4953752,0.0051933022171209
1746442189.5241024,0.005478933675186
1746442189.5528295,0.0053915484931488
1746442189.581557,0.0051245604534144
1746442189.6102843,0.0050856161847267
1746442189.6390116,0.0052866373066682
1746442189.667739,0.0052508537436358
1746442189.6964662,0.0052386181484318
1746442189.7251935,0.005345458547468
1746442189.7539208,0.0055045791440528
1746442189.782648,0.0055681020324587
1746442189.8113754,0.0054649093918565
1746442189.840103,0.0052781231716191
1746442189.86883,0.0054491916082736
1746442189.8975573,0.0053973241434492
1746442189.9262846,0.0052360358878943
1746442189.9550118,0.0053102742664965
1746442189.9837391,0.0051915772573778
1746442190.0124664,0.0051691421324857
1746442190.0411935,0.0055524042836576
1746442190.069921,0.0052458245552841
1746442190.0986483,0.0054562709599849
1746442190.1273756,0.0052855997658964
1746442190.156103,0.0051290741597112
1746442190.1848302,0.0052404017834243
1746442190.2135575,0.0054792727702231
1746442190.2422848,0.0050016699141676
1746442190.271012,0.0054742834868644
1746442190.2997394,0.0060933651731453
1746442190.328467,0.005915975929654
1746442190.357194,0.0056925946733978
1746442190.3859212,0.005805082264662
1746442190.4146483,0.0059052656505558
1746442190.4433758,0.0059188247997732
1746442190.472103,0.0054794521880538
1746442190.5008304,0.0050068535847906
1746442190.5295577,0.0052527803266343
1746442190.558285,0.0053620373901401
1746442190.5870123,0.0051806908543437
1746442190.6157396,0.0048411496826324
1746442190.6444669,0.0050827388070132
1746442190.6731942,0.0049562390292511
1746442190.7019217,0.0047538430870073
1746442190.7306488,0.0047904597504576
1746442190.759376,0.0048409980283176
1746442190.788103,0.0049544108474003
1746442190.8168306,0.0048637928964894
1746442190.845558,0.0048042393138449
1746442190.8742852,0.0047533053192124
1746442190.9030125,0.0049645611069831
1746442190.9317398,0.004855455316529
1746442190.960467,0.0049548022017181
1746442190.9891944,0.004771849700059
1746442191.0179217,0.0049505000980215
1746442191.046649,0.0048911691184377
1746442191.0753765,0.0051995712975974
1746442191.1041036,0.0049488121655568
1746442191.1328309,0.0051786666066595
1746442191.1615582,0.0050190833148483
1746442191.1902854,0.0053495399759103
1746442191.2190127,0.0051179602596382
1746442191.24774,0.0052945645353013
1746442191.276467,0.0050851889239539
1746442191.3051946,0.0050062130796504
1746442191.333922,0.0050469386185917
1746442191.3626492,0.0050593887190103
1746442191.3913765,0.0048324760939867
1746442191.4201038,0.005261457810043
