timestamp,emg
0.0,0.0035680184963905
0.0287273771904625,0.0035757870808419
0.057454754380925,0.003618592912764
0.0861821315713875,0.0036211889477411
0.11490950876185,0.0036811968423796
0.1436368859523125,0.0037516770824408
0.172364263142775,0.0037225401384719
0.2010916403332375,0.0036280207762643
0.2298190175237,0.0035163152796656
0.2585463947141626,0.0032632763585109
0.2872737719046251,0.0034400148352319
0.3160011490950876,0.003217034787114
0.3447285262855501,0.0033107507978289
0.3734559034760126,0.0034125963957433
0.4021832806664751,0.0034145219881736
0.4309106578569376,0.0036154837119938
0.4596380350474001,0.0036177138132029
0.4883654122378627,0.0036384754751539
0.5170927894283252,0.0037265447477723
0.5458201666187876,0.0037446205917248
0.5745475438092502,0.0041484570870908
0.6032749209997127,0.0032117359287424
0.6320022981901752,0.0033478848972759
0.6607296753806376,0.003454616568324
0.6894570525711002,0.0033346245077909
0.7181844297615627,0.0034646847091443
0.7469118069520252,0.0036053646551483
0.7756391841424878,0.0034733579717903
0.8043665613329503,0.0034203547448531
0.8330939385234127,0.0036047983670133
0.8618213157138752,0.0036612256830384
0.8905486929043378,0.0036869971231388
0.9192760700948004,0.0038354218237615
0.9480034472852628,0.0041597557472763
0.9767308244757252,0.0044031235669862
1.0054582016661875,0.0044444497926352
1.0341855788566503,0.0043752703750716
1.062912956047113,0.0043060768498419
1.0916403332375753,0.004310007925239
1.1203677104280378,0.0042489376020762
1.1490950876185004,0.0042969037516212
1.1778224648089628,0.0040585211025848
1.2065498419994254,0.0037396593760221
1.235277219189888,0.0036406733282444
1.2640045963803503,0.0037244246580414
1.292731973570813,0.0037334985218528
1.3214593507612753,0.0037051518720598
1.350186727951738,0.0034785081020092
1.3789141051422005,0.0036389381522694
1.4076414823326628,0.0035396400004057
1.4363688595231254,0.0033631912464668
1.465096236713588,0.0034649673094211
1.4938236139040504,0.0033570428840369
1.522550991094513,0.0033702295309814
1.5512783682849756,0.0035043060853207
1.580005745475438,0.0035064570150695
1.6087331226659003,0.0034571135409736
1.637460499856363,0.003657992587134
1.6661878770468257,0.003709373112881
1.694915254237288,0.0036438899962859
1.7236426314277504,0.0036520848168538
1.752370008618213,0.0035030478308483
1.7810973858086756,0.0035673223262945
1.809824762999138,0.00378546629331
1.8385521401896008,0.0038179427533356
1.8672795173800631,0.0036845495993328
1.8960068945705255,0.0038876482770014
1.924734271760988,0.003615355682187
1.9534616489514507,0.0035948047368581
1.982189026141913,0.0035947732388972
2.010916403332375,0.0036283307822333
2.0396437805228382,0.0038127357841486
2.0683711577133006,0.0037092498040206
2.097098534903763,0.0036920929766084
2.125825912094226,0.0034921379376256
2.154553289284688,0.0036171877281164
2.1832806664751505,0.003670185539747
2.2120080436656133,0.0037512711627667
2.2407354208560757,0.0037151896814161
2.269462798046538,0.0034317479717539
2.298190175237001,0.0034949810414156
2.3269175524274632,0.0037032627130866
2.3556449296179256,0.0038359965545084
2.3843723068083884,0.0041697767121553
2.4130996839988508,0.0026483809276508
2.441827061189313,0.0036367134044234
2.470554438379776,0.0037744133647737
2.4992818155702383,0.0034588125202011
2.5280091927607007,0.0032759053410491
2.5567365699511635,0.0032470314672274
2.585463947141626,0.0033641833339122
2.614191324332088,0.0035190614848856
2.6429187015225506,0.0034305451760401
2.6716460787130134,0.0034251671385865
2.700373455903476,0.0038372624844364
2.729100833093938,0.0038178612922028
2.757828210284401,0.0037943700584963
2.7865555874748633,0.0037462101341934
2.8152829646653257,0.0037432925742418
2.8440103418557885,0.0036314829153791
2.872737719046251,0.0035578260353386
2.9014650962367132,0.0035006647855189
2.930192473427176,0.0035795372816325
2.9589198506176384,0.0035724052502587
2.9876472278081008,0.003643483695511
3.0163746049985636,0.0032581258654272
3.045101982189026,0.0037198378756407
3.0738293593794883,0.0041248740972856
3.102556736569951,0.0037183399418607
3.1312841137604135,0.0036828360776511
3.160011490950876,0.0036639745810707
3.1887388681413387,0.0036405565115851
3.217466245331801,0.0037129741093027
3.2461936225222634,0.0035322894870609
3.274920999712726,0.003549798213305
3.303648376903189,0.0002942912910264
3.332375754093651,0.0111641902559625
3.3611031312841133,0.0067400252657896
3.389830508474576,0.0056691833608826
3.4185578856650385,0.0077512585815828
3.447285262855501,0.0081755785784519
3.4760126400459637,0.0091237132438417
3.504740017236426,0.0112648376900476
3.5334673944268884,0.0133621966287499
3.562194771617351,0.0076966816989299
3.5909221488078136,0.008758470343957
3.619649525998276,0.0088620207897414
3.648376903188739,0.0099966662718575
3.677104280379201,0.0099715218947048
3.705831657569663,0.0068724481189022
3.7345590347601263,0.0052755261116976
3.7632864119505887,0.0048203781808885
3.792013789141051,0.0051581702257669
3.820741166331514,0.0045897435524709
3.849468543521976,0.0044527516638092
3.8781959207124386,0.0032400506666879
3.9069232979029014,0.0034007546426457
3.935650675093364,0.0033748750893632
3.964378052283826,0.0034571411409094
3.993105429474289,0.0034273422989891
4.021832806664751,0.0033202513291686
4.050560183855214,0.0032799403954139
4.0792875610456765,0.003297436622849
4.108014938236138,0.0034277804620856
4.136742315426601,0.0035175387006085
4.165469692617064,0.0035416954778877
4.194197069807526,0.0035440680172386
4.222924446997989,0.0035079233189104
4.251651824188452,0.0035779086245576
4.2803792013789135,0.0035792392508651
4.309106578569376,0.0037007346737537
4.337833955759839,0.0033033129434798
4.366561332950301,0.0034537998139594
4.395288710140764,0.0034354670969296
4.424016087331227,0.0034006878382885
4.452743464521689,0.003544634669887
4.481470841712151,0.003598860301614
4.510198218902614,0.0035955001630649
4.538925596093076,0.003753041599557
4.567652973283539,0.0038377900214498
4.596380350474002,0.0038072453419757
4.625107727664464,0.0039199879190307
4.6538351048549265,0.0040232881671366
4.682562482045389,0.0039767002341101
4.711289859235851,0.0039084973229914
4.740017236426314,0.0039537530147445
4.768744613616777,0.0040993899351715
4.797471990807239,0.0038433236234906
4.8261993679977016,0.0038016364456055
4.854926745188164,0.004003522564346
4.883654122378626,0.0039047846453579
4.912381499569089,0.0038880785693314
4.941108876759552,0.0036459945369454
4.969836253950014,0.0035521108908689
4.998563631140477,0.003515459425395
5.0272910083309394,0.0036568649562856
5.056018385521401,0.0035347199422746
5.084745762711864,0.0032199593860581
5.113473139902327,0.0033810952249086
5.142200517092789,0.0033075633231035
5.170927894283252,0.0035779732751208
5.199655271473714,0.0036100070144961
5.2283826486641765,0.0034919980913749
5.257110025854639,0.003472917684776
5.285837403045101,0.003590985221713
5.314564780235564,0.0034938478681645
5.343292157426027,0.0036263467911021
5.372019534616489,0.0037653132192837
5.4007469118069515,0.0032515280678374
5.429474288997414,0.0033308896303846
5.458201666187876,0.0035667321045239
5.486929043378339,0.0035946055133461
5.515656420568802,0.0034539252156148
5.544383797759264,0.0035599977053695
5.573111174949727,0.0035797180305588
5.601838552140189,0.0034332702273295
5.630565929330651,0.0034466044979617
5.659293306521114,0.0036495995710438
5.688020683711577,0.0035577470720639
5.716748060902039,0.0035676082426592
5.745475438092502,0.0034482264331648
5.7742028152829645,0.0036474245026559
5.8029301924734265,0.0052030498237445
5.831657569663889,0.0062440304547271
5.860384946854352,0.0061258878253104
5.889112324044814,0.0057826864074007
5.917839701235277,0.0067170812907726
5.94656707842574,0.0070397296541953
5.9752944556162015,0.007914294510829
6.004021832806664,0.0074964098605017
6.032749209997127,0.0061833539073669
6.061476587187589,0.0086096411747661
6.090203964378052,0.008428817394508
6.118931341568515,0.0081053524121065
6.147658718758977,0.0085865227670144
6.176386095949439,0.0099948237025691
6.205113473139902,0.0046406145298367
6.233840850330364,0.0066649549575782
6.262568227520827,0.0060053226997151
6.29129560471129,0.0048618162110429
6.320022981901752,0.003774163961873
6.3487503590922145,0.0036689476601486
6.377477736282677,0.0034878987644032
6.406205113473139,0.0033797068783721
6.434932490663602,0.0032963038666022
6.463659867854065,0.0032830995179917
6.492387245044527,0.0030361892943251
6.52111462223499,0.0034986256294163
6.549841999425452,0.0035205304053296
6.578569376615914,0.0038128214267632
6.607296753806377,0.0035757240249137
6.636024130996839,0.0036647723193116
6.664751508187302,0.0034966383150371
6.693478885377765,0.0037404680170769
6.722206262568227,0.0037752073568324
6.750933639758689,0.0034925268022716
6.779661016949152,0.0035083122680134
6.808388394139614,0.0034377112291555
6.837115771330077,0.0034360482144174
6.86584314852054,0.0035203531648477
6.894570525711002,0.003318801958233
6.9232979029014645,0.0033223786812737
6.952025280091927,0.003316931533977
6.980752657282389,0.0035623107559165
7.009480034472852,0.0036283972583286
7.038207411663315,0.0034332140738581
7.066934788853777,0.0035358889298808
7.09566216604424,0.0035622101704516
7.124389543234702,0.0037935227748931
7.153116920425164,0.0033135026470652
7.181844297615627,0.003524477817375
7.21057167480609,0.0038348435722141
7.239299051996552,0.0037173945936523
7.268026429187015,0.0036689699369955
7.296753806377477,0.0038104068570926
7.325481183567939,0.003983075936436
7.354208560758402,0.0038994808501661
7.382935937948865,0.0038550526068677
7.411663315139327,0.0036782483098556
7.44039069232979,0.003483708312008
7.469118069520253,0.0036556965752952
7.497845446710715,0.0038262772021267
7.526572823901177,0.0033620517160212
7.55530020109164,0.0034042288811402
7.584027578282102,0.0035737416788846
7.612754955472565,0.0035430946828044
7.641482332663028,0.0034878165980923
7.67020970985349,0.0035431900279581
7.698937087043952,0.0033603765328732
7.727664464234415,0.0032379768581415
7.756391841424877,0.0032790843139551
7.78511921861534,0.0032174642066333
7.813846595805803,0.0033243882109858
7.842573972996265,0.0035792724131994
7.871301350186728,0.0034419621157106
7.90002872737719,0.0034524501971724
7.928756104567652,0.0037866070025238
7.957483481758115,0.0036637374239372
7.986210858948578,0.0037466952779411
8.01493823613904,0.0037360164850761
8.043665613329502,0.0036963937110901
8.072392990519965,0.0035580025270756
8.101120367710427,0.0032473890999085
8.12984774490089,0.0033122607653683
8.158575122091353,0.0031705612729123
8.187302499281815,0.0029595043066385
8.216029876472277,0.0031711509102943
8.24475725366274,0.0035574134483116
8.273484630853202,0.0035701941576104
8.302212008043664,0.0026564770045214
8.330939385234128,0.00491109003166
8.35966676242459,0.0076272849011658
8.388394139615052,0.006176159740786
8.417121516805516,0.0066552125691115
8.445848893995977,0.0071634975360936
8.47457627118644,0.0073707187337898
8.503303648376903,0.0075371953966455
8.532031025567365,0.0073600237973176
8.560758402757827,0.0072169195467724
8.58948577994829,0.0063291367538649
8.618213157138753,0.0052006255818555
8.646940534329215,0.0050117603887883
8.675667911519678,0.0048059619741728
8.70439528871014,0.0044181101368176
8.733122665900602,0.0043159111186847
8.761850043091066,0.0041585818587909
8.790577420281528,0.0039113854813331
8.81930479747199,0.0038889360296777
8.848032174662453,0.0037237885232769
8.876759551852915,0.0034867206444749
8.905486929043377,0.0035749790957719
8.93421430623384,0.0034662421944778
8.962941683424303,0.0035558696033878
8.991669060614765,0.0035023585922793
9.020396437805228,0.0035216710294483
9.04912381499569,0.0036437233510784
9.077851192186152,0.0035691125082837
9.106578569376616,0.0035225037956029
9.135305946567078,0.0036955343533555
9.16403332375754,0.0034039781704825
9.192760700948003,0.0032353283834758
9.221488078138464,0.0033761563603951
9.250215455328927,0.0033148111188937
9.278942832519393,0.0031822886789847
9.307670209709851,0.003188466884128
9.336397586900317,0.0033878315076782
9.36512496409078,0.0034745619010949
9.39385234128124,0.0035193394863946
9.422579718471702,0.0036998635567704
9.451307095662166,0.0038439954994956
9.480034472852628,0.0038570035880929
9.50876185004309,0.0038098409838398
9.537489227233554,0.0041789490515397
9.566216604424016,0.00348820291587
9.594943981614476,0.0033243295579092
9.62367135880494,0.0036958501585319
9.652398735995405,0.0035973630539409
9.681126113185863,0.0035918027292604
9.709853490376329,0.0036601094999754
9.73858086756679,0.0036160890114787
9.767308244757253,0.0037518734850263
9.796035621947716,0.0037103391898864
9.824762999138178,0.0037056352115355
9.85349037632864,0.0035506576017487
9.882217753519104,0.0036065677067434
9.910945130709566,0.0036115934807014
9.939672507900028,0.0034210766199123
9.968399885090491,0.0034645789671992
9.997127262280951,0.0034989282399299
10.025854639471415,0.0035706743050858
10.05458201666188,0.0038854395277702
10.08330939385234,0.0037036868624351
10.112036771042805,0.0034648484506267
10.140764148233266,0.0034664069698074
10.169491525423728,0.0035893611074148
10.19821890261419,0.0034850530268776
10.226946279804654,0.0033434790212389
10.255673656995116,0.0035213434562375
10.284401034185578,0.0033596682791605
10.31312841137604,0.0037464063602363
10.341855788566503,0.0035587340079888
10.370583165756964,0.0039396571255939
10.399310542947427,0.0034662817088042
10.428037920137893,0.0026697398937855
10.456765297328351,0.0033310986735678
10.485492674518817,0.0034451880607744
10.51422005170928,0.003243906752818
10.54294742889974,0.0036109911334534
10.571674806090202,0.0037497923801976
10.600402183280666,0.0034936201721098
10.629129560471128,0.0038151652237289
10.65785693766159,0.0039178108214519
10.686584314852054,0.003805500394154
10.715311692042516,0.0038862075765548
10.744039069232976,0.0038662371631358
10.77276644642344,0.0037984751812412
10.801493823613905,0.0038173996732418
10.830221200804363,0.0038147160719779
10.858948577994829,0.0036986796759626
10.88767595518529,0.0036245988570764
10.916403332375753,0.0035731558846271
10.945130709566216,0.0034742863411109
10.973858086756678,0.0033245992785894
11.00258546394714,0.0034453377213916
11.031312841137604,0.0036256812028683
11.060040218328066,0.0034096536430002
11.088767595518528,0.0034347750282059
11.117494972708991,0.0034825610278557
11.146222349899451,0.0033032298119055
11.174949727089915,0.0033526405320488
11.20367710428038,0.0033964746379609
11.23240448147084,0.0033626317280919
11.261131858661305,0.0034144063271511
11.289859235851766,0.0034391356043599
11.318586613042228,0.0034242212342075
11.34731399023269,0.0035819994846273
11.376041367423154,0.0036911759765111
11.404768744613616,0.0037107309336517
11.433496121804078,0.0037620360394025
11.462223498994542,0.0036789038432969
11.490950876185003,0.0035899826559736
11.519678253375464,0.0039616676728097
11.548405630565927,0.0039039699415159
11.577133007756393,0.0038244158679941
11.605860384946851,0.0038380383631415
11.634587762137317,0.0037960746599818
11.66331513932778,0.0036526432072772
11.69204251651824,0.0036293495823986
11.720769893708704,0.0036978061408169
11.749497270899166,0.0035707852935294
11.778224648089628,0.0034530385493609
11.806952025280092,0.0036182180257997
11.835679402470554,0.003547870449694
11.864406779661016,0.0034467049940689
11.89313415685148,0.0036463066239791
11.92186153404194,0.0035887092973247
11.950588911232405,0.0035501930048017
11.979316288422869,0.0034536929347474
12.008043665613329,0.0035425430483355
12.03677104280379,0.00349818223685
12.065498419994254,0.0038490751279592
12.094225797184716,0.0049746445005216
12.122953174375178,0.005524553513983
12.151680551565642,0.0056048221124982
12.180407928756104,0.0056971355729175
12.209135305946566,0.0055487234901312
12.23786268313703,0.0049066858209382
12.266590060327491,0.0072460664134476
12.295317437517951,0.0110931590417435
12.324044814708415,0.0134289380535399
12.35277219189888,0.0134304204728644
12.38149956908934,0.0168235147278511
12.410226946279804,0.018286941384763
12.438954323470266,0.0172578962940492
12.467681700660728,0.0174230354416281
12.496409077851192,0.0123786350125918
12.525136455041654,0.0130531216097973
12.553863832232116,0.0126416929913062
12.58259120942258,0.0109739978087012
12.611318586613042,0.0077645449948039
12.640045963803503,0.0055551613542945
12.668773340993967,0.0047751358170894
12.697500718184427,0.0043185570443348
12.726228095374893,0.0042558383166781
12.754955472565356,0.0042801133910063
12.783682849755817,0.0039060700775751
12.81241022694628,0.0038654994707216
12.841137604136742,0.0039999898032614
12.869864981327204,0.0038411708886431
12.898592358517666,0.0034275116984049
12.92731973570813,0.0034389500986683
12.956047112898592,0.0036947948707714
12.984774490089054,0.003504960554091
13.013501867279516,0.0036721827080926
13.04222924446998,0.0036999787366247
13.07095662166044,0.0035493065528187
13.099683998850905,0.003746623990661
13.128411376041369,0.0036170306863878
13.157138753231829,0.0037620273805012
13.185866130422292,0.0034661411838706
13.214593507612754,0.0031085850308617
13.243320884803216,0.0031764574479063
13.272048261993678,0.0034782231528054
13.300775639184142,0.0034845554882297
13.329503016374604,0.0032372987303017
13.358230393565066,0.0035731648347589
13.38695777075553,0.0036242601873904
13.415685147945991,0.003500795740662
13.444412525136451,0.0041759243250643
13.473139902326915,0.0048912074630009
13.50186727951738,0.0031696562189807
13.53059465670784,0.0038428716770178
13.559322033898304,0.0037291742680918
13.588049411088766,0.003756774011395
13.616776788279228,0.0038151335283358
13.645504165469692,0.0038320853722448
13.674231542660154,0.0038143894062585
13.702958919850616,0.0038326047846141
13.73168629704108,0.0039610405321036
13.76041367423154,0.0038850442789414
13.789141051422003,0.003838941417434
13.817868428612467,0.0038240891182223
13.846595805802927,0.0036917274354387
13.875323182993393,0.0034589482634961
13.904050560183856,0.0032722819018873
13.932777937374317,0.003254504977766
13.96150531456478,0.0032184141575376
13.990232691755242,0.003122109513034
14.018960068945704,0.003094545021708
14.047687446136166,0.0032007245594746
14.07641482332663,0.0032734074330061
14.105142200517092,0.0029925290214573
14.133869577707554,0.003205632681751
14.162596954898016,0.0034080832748448
14.19132433208848,0.0033076605418563
14.22005170927894,0.0032431580150953
14.248779086469405,0.0034818408315327
14.277506463659869,0.0034457696942841
14.306233840850329,0.0035099878158663
14.334961218040792,0.0034695089901109
14.363688595231254,0.0034843662752028
14.392415972421716,0.0034755524022731
14.42114334961218,0.0035360411608131
14.449870726802642,0.0036396135369962
14.478598103993104,0.0036047564021661
14.507325481183567,0.0036868811198874
14.53605285837403,0.0039371827011623
14.564780235564491,0.0033618282242828
14.593507612754957,0.00347236743659
14.622234989945415,0.0035049347442515
14.65096236713588,0.0034746496831944
14.679689744326344,0.0029987487043347
14.708417121516804,0.0038650783753719
14.737144498707266,0.0034316967834465
14.76587187589773,0.0035459658221977
14.794599253088192,0.0036213262576958
14.823326630278654,0.0036667282737879
14.852054007469118,0.0035792003129909
14.88078138465958,0.0034698665966382
14.90950876185004,0.0036317333899988
14.938236139040503,0.0037822517712409
14.966963516230969,0.0038990896065664
14.995690893421427,0.0039694340091667
15.024418270611893,0.0038039326123396
15.053145647802356,0.003861604833606
15.081873024992817,0.0036992697215121
15.11060040218328,0.0039735508564522
15.139327779373742,0.0038976529162777
15.168055156564204,0.0034899572815124
15.196782533754668,0.0034024769765853
15.22550991094513,0.0034128639062226
15.254237288135592,0.0034587831981718
15.282964665326055,0.0036724071401684
15.311692042516515,0.0039060725614504
15.34041941970698,0.0037773829537075
15.369146796897445,0.0039066562460336
15.397874174087905,0.0037935994652806
15.426601551278369,0.003900038540019
15.45532892846883,0.0038890299694636
15.484056305659292,0.0037334489340325
15.512783682849754,0.0037041951255696
15.541511060040218,0.0037468283518115
15.57023843723068,0.0037119835165067
15.598965814421142,0.0036531912376722
15.627693191611606,0.0036927471982319
15.656420568802067,0.0036181496724403
15.68514794599253,0.0035116477493663
15.713875323182991,0.0036071246755321
15.742602700373457,0.0033966781285817
15.771330077563915,0.0034131697471974
15.80005745475438,0.0035475081709142
15.828784831944844,0.0030930115192277
15.857512209135304,0.0034357951932989
15.886239586325768,0.0038039651987871
15.91496696351623,0.0035356737217294
15.943694340706692,0.0036209553588832
15.972421717897156,0.0038734858235767
16.001149095087616,0.0036628275256844
16.02987647227808,0.0038507421853297
16.058603849468543,0.0037939417541162
16.087331226659003,0.0034773367668108
16.116058603849467,0.0034404122803897
16.14478598103993,0.00348285760412
16.17351335823039,0.00369488591695
16.202240735420855,0.0037540654968749
16.23096811261132,0.0045238413364961
16.25969548980178,0.0043584936576659
16.288422866992242,0.0075370537219622
16.317150244182706,0.0086240347661847
16.345877621373166,0.0068677464155403
16.37460499856363,0.0087628469679704
16.403332375754093,0.0107043112422952
16.432059752944554,0.009903398113415
16.460787130135017,0.0099062267716181
16.48951450732548,0.0106144047865808
16.51824188451594,0.0071631859548514
16.546969261706405,0.0068128285594019
16.57569663889687,0.007193255713862
16.60442401608733,0.0048439679358492
16.633151393277792,0.0036128015004608
16.661878770468256,0.0040460054470843
16.690606147658716,0.0039927296926344
16.71933352484918,0.0037686363654615
16.748060902039644,0.0038289169834332
16.776788279230104,0.0037779511656819
16.805515656420567,0.0036344159943012
16.83424303361103,0.0036117823379954
16.86297041080149,0.0034980300749642
16.891697787991955,0.0033701818272165
16.92042516518242,0.0033920722104808
16.94915254237288,0.0033444278510286
16.977879919563343,0.0034340163889679
17.006607296753806,0.0034709922328756
17.035334673944266,0.0034984772292613
17.06406205113473,0.0035588631177621
17.092789428325194,0.0036164872818479
17.121516805515654,0.0035534580788336
17.150244182706118,0.0035140354032255
17.17897155989658,0.0036950512593344
17.20769893708704,0.0033835375492472
17.236426314277505,0.0035262308682398
17.26515369146797,0.0031831827208498
17.29388106865843,0.0032977744729295
17.322608445848893,0.0033208184203591
17.351335823039356,0.0032242148398824
17.380063200229817,0.0032696859028482
17.40879057742028,0.0033121644400229
17.437517954610744,0.0034418269300687
17.466245331801204,0.0037534518147965
17.494972708991668,0.0033805059002401
17.52370008618213,0.0037637433047814
17.55242746337259,0.0039914854008841
17.581154840563055,0.0041193792865875
17.60988221775352,0.0040678755281805
17.63860959494398,0.0041371305617171
17.667336972134443,0.0039997356321925
17.696064349324907,0.0039635664435613
17.724791726515367,0.0038487729578661
17.75351910370583,0.0039255010081159
17.782246480896294,0.0037862441681809
17.810973858086754,0.0039942307692907
17.839701235277218,0.0038447282108615
17.86842861246768,0.0036444081760846
17.897155989658142,0.0037890831271696
17.925883366848606,0.0038480480619724
17.95461074403907,0.0038334390895365
17.98333812122953,0.0038609976266188
18.012065498419993,0.0037011498517217
18.040792875610457,0.0036487736027759
18.069520252800917,0.0038192002351018
18.09824762999138,0.0038052680596928
18.126975007181844,0.0035924619155295
18.155702384372304,0.0035686202046412
18.184429761562768,0.0035888617113257
18.213157138753232,0.0036062991371177
18.241884515943692,0.0035939377418211
18.270611893134156,0.0035648676048208
18.29933927032462,0.0037154545103531
18.32806664751508,0.0037554079501693
18.356794024705543,0.0038081434256913
18.385521401896007,0.0036328133444427
18.414248779086467,0.0035169177430038
18.44297615627693,0.0036258359487398
18.47170353346739,0.003526529730254
18.500430910657855,0.00352400609278
18.52915828784832,0.0036115668111102
18.557885665038786,0.0034624216496992
18.58661304222924,0.0034961245004663
18.615340419419702,0.0036270117722893
18.64406779661017,0.0034228304350281
18.67279517380063,0.0034330238049265
18.701522550991093,0.0037066220527028
18.730249928181557,0.0034320263553264
18.758977305372017,0.0033760379747029
18.78770468256248,0.003328702398404
18.816432059752945,0.0034817645984302
18.845159436943405,0.0034632933286367
18.87388681413387,0.0033833816344001
18.902614191324332,0.0034900915047663
18.931341568514792,0.0033266214329198
18.960068945705256,0.0035361247531523
18.98879632289572,0.0034503105096755
19.01752370008618,0.003374870044239
19.046251077276644,0.0034798578408534
19.074978454467107,0.0035601581335811
19.103705831657567,0.0033224355460985
19.13243320884803,0.0033846123973025
19.161160586038495,0.0036906190633185
19.189887963228955,0.0032941308652763
19.21861534041942,0.0032810376790071
19.24734271760988,0.003259977764433
19.276070094800343,0.0031298662155759
19.30479747199081,0.0034732228040598
19.33352484918127,0.0032882798461633
19.36225222637173,0.003343645033071
19.390979603562194,0.0034241295719599
19.419706980752657,0.0034065209285573
19.44843435794312,0.0033169726965155
19.47716173513358,0.0036654593300944
19.505889112324045,0.0036716311352319
19.534616489514505,0.003314767310713
19.56334386670497,0.0037597950213879
19.592071243895433,0.0038268977106634
19.620798621085893,0.0031354219121185
19.649525998276356,0.0038479934502894
19.67825337546682,0.0039442402896512
19.70698075265728,0.0033109262110409
19.735708129847744,0.0032678890867043
19.764435507038208,0.0034706990701365
19.793162884228668,0.003502848804468
19.82189026141913,0.0034672299948383
19.850617638609595,0.0035753751499083
19.879345015800055,0.003417061233533
19.90807239299052,0.003921902925053
19.936799770180983,0.0036584645875745
19.965527147371443,0.0037022443083544
19.994254524561907,0.0037886212041834
20.02298190175237,0.0036704277632503
20.05170927894283,0.0037458281486559
20.080436656133298,0.0038203602070473
20.10916403332376,0.0038509394490498
20.137891410514214,0.0038423544845999
20.16661878770468,0.0038419287517644
20.195346164895145,0.0036292033266911
20.224073542085605,0.0042663112720717
20.25280091927607,0.0045602909534949
20.281528296466533,0.0048473836596538
20.310255673656993,0.0053975425493032
20.338983050847457,0.0055075261015407
20.36771042803792,0.0078482187388416
20.39643780522838,0.0133799173483888
20.425165182418844,0.0147183335112262
20.453892559609308,0.0145268286488064
20.482619936799768,0.0142477785099447
20.511347313990232,0.0149728417855018
20.540074691180696,0.0138854508144073
20.568802068371156,0.0138059138626495
20.59752944556162,0.012290882669157
20.62625682275208,0.0065837713580832
20.654984199942543,0.0043675151930365
20.683711577133007,0.0053950221282422
20.712438954323467,0.0059195969118425
20.74116633151393,0.0045381524453465
20.76989370870439,0.0049868804060875
20.798621085894855,0.003901438193904
20.82734846308532,0.00388924266792
20.856075840275786,0.0037048529670977
20.88480321746624,0.0036640687184925
20.913530594656702,0.003870287423077
20.94225797184717,0.003703147887845
20.97098534903763,0.0037321001332102
20.999712726228093,0.0037177009339705
21.028440103418557,0.0032568979701316
21.057167480609017,0.0033960624953712
21.08589485779948,0.0036884458124943
21.114622234989945,0.0036487350075082
21.143349612180405,0.0034256511086052
21.17207698937087,0.0035569837872845
21.200804366561332,0.003547151670114
21.229531743751792,0.0036779479729839
21.258259120942256,0.0036508865668355
21.28698649813272,0.0036060130786617
21.31571387532318,0.0036676121186019
21.344441252513644,0.0035325013581438
21.373168629704107,0.003491730544037
21.401896006894567,0.0034490358213774
21.43062338408503,0.0035019578010455
21.459350761275495,0.0036680626236041
21.488078138465955,0.0037018115653274
21.51680551565642,0.003612039497659
21.54553289284688,0.0036750040178896
21.574260270037342,0.0037797108816754
21.60298764722781,0.0037392866259251
21.63171502441827,0.0037816564419619
21.66044240160873,0.003823200773459
21.689169778799194,0.0038135837148913
21.717897155989657,0.0036930967106835
21.74662453318012,0.0037522087187461
21.77535191037058,0.0037776424498652
21.804079287561045,0.0037092317576501
21.832806664751505,0.0039070917413107
21.86153404194197,0.003780591639816
21.890261419132433,0.0037565130333885
21.918988796322893,0.0036423391529525
21.947716173513356,0.003532580130286
21.97644355070382,0.0036321728251587
22.00517092789428,0.0034114343301575
22.033898305084744,0.0033921404279758
22.062625682275208,0.0034765072531345
22.091353059465668,0.0033176647033447
22.12008043665613,0.0032621258884827
22.148807813846595,0.0032953197173106
22.177535191037055,0.003262082378767
22.20626256822752,0.003253523452677
22.234989945417983,0.0032510942671972
22.263717322608443,0.0033161605328486
22.292444699798907,0.0034594500211961
22.32117207698937,0.0034438228490267
22.34989945417983,0.0034204403453224
22.378626831370298,0.0032571445791272
22.40735420856076,0.0032854993637861
22.436081585751214,0.0035106212386298
22.46480896294168,0.0035640707684723
22.493536340132145,0.0033934718759274
22.522263717322605,0.0033897852445503
22.55099109451307,0.003410802291694
22.579718471703533,0.0034375995209805
22.608445848893993,0.0039433517619552
22.637173226084457,0.0038016961324741
22.66590060327492,0.0034778358155539
22.69462798046538,0.0036540353104421
22.723355357655844,0.0035568416718377
22.752082734846308,0.0037457403343522
22.780810112036768,0.003590830831016
22.809537489227232,0.0034413371861757
22.838264866417695,0.0034077750953138
22.866992243608156,0.0032757510300492
22.89571962079862,0.0036909991738169
22.924446997989083,0.0037811394159092
22.953174375179543,0.0037298431824585
22.981901752370007,0.0037460187086169
23.01062912956047,0.0037603305700776
23.03935650675093,0.0037709095035348
23.06808388394139,0.003779874107446
23.096811261131855,0.0036202182601092
23.12553863832232,0.0035355584180767
23.154266015512786,0.0036467028004252
23.18299339270325,0.003757369042336
23.211720769893702,0.0037690413976986
23.24044814708417,0.0037565726111455
23.269175524274633,0.003711916902395
23.297902901465093,0.0037444389699401
23.326630278655557,0.00380231014491
23.35535765584602,0.0037030347182464
23.38408503303648,0.0037768630980101
23.412812410226945,0.0039806756068878
23.44153978741741,0.0033853114056298
23.47026716460787,0.0036385862118875
23.498994541798332,0.0039629390398284
23.527721918988796,0.0036789838060744
23.556449296179256,0.0034096789746263
23.58517667336972,0.004220391201863
23.613904050560183,0.0037975984235508
23.642631427750644,0.0036356208625307
23.671358804941107,0.0037820967630429
23.70008618213157,0.0036452246939148
23.72881355932203,0.0028157192954905
23.757540936512495,0.003932380619786
23.78626831370296,0.0043406892514152
23.81499569089342,0.0033938291045327
23.84372306808388,0.0032343882867564
23.872450445274342,0.0033548033240563
23.90117782246481,0.003488552620923
23.92990519965527,0.0036491693667611
23.958632576845737,0.003548946805873
23.987359954036194,0.0033027828988304
24.016087331226657,0.0034495989362548
24.04481470841712,0.0035667503238648
24.07354208560758,0.0035829446160269
24.102269462798045,0.0037920311446361
24.13099683998851,0.0036026298700422
24.15972421717897,0.0033933119459576
24.188451594369432,0.0034513878008164
24.217178971559896,0.0036337366489244
24.245906348750356,0.0034264168217502
24.27463372594082,0.0038725537516088
24.303361103131284,0.0043938079228045
24.332088480321744,0.0082185575273875
24.360815857512208,0.0076858578385145
24.38954323470267,0.0080169427751249
24.41827061189313,0.0083787047624284
24.446997989083595,0.0085328135323911
24.47572536627406,0.0082995612527722
24.50445274346452,0.0081472178809717
24.533180120654983,0.0094730549426219
24.561907497845446,0.006921073713223
24.590634875035907,0.0045929704803401
24.61936225222637,0.0050888914462145
24.64808962941683,0.0038690934667731
24.676817006607298,0.0039046738160455
24.70554438379776,0.0035976585219199
24.73427176098822,0.0035533494899092
24.76299913817868,0.0036299214727708
24.791726515369145,0.0035743250393571
24.82045389255961,0.0037646671282721
24.84918126975007,0.0037137434462721
24.877908646940533,0.0038671046294576
24.906636024130997,0.0034432669192055
24.935363401321457,0.003599624068803
24.96409077851192,0.0035024255840893
24.992818155702384,0.0035115370783333
25.021545532892844,0.0037282679381798
25.050272910083308,0.0037253847647044
25.07900028727377,0.0033843814214225
25.10772766446423,0.003502780114091
25.136455041654695,0.0032207763588375
25.16518241884516,0.0032764157788904
25.19390979603562,0.0040864211107136
25.222637173226083,0.0039867735834344
25.251364550416547,0.0039636769612146
25.280091927607007,0.0039369445609942
25.30881930479747,0.0038950352973731
25.337546681987934,0.003792344634972
25.36627405917839,0.0040724192086109
25.395001436368855,0.0038287300810345
25.42372881355932,0.0030818442847413
25.452456190749785,0.0040033914790887
25.48118356794025,0.003840137796042
25.50991094513071,0.0034398362179146
25.53863832232117,0.0034857454294669
25.567365699511633,0.0037462298031293
25.596093076702097,0.0031812388598223
25.624820453892557,0.0035863843045983
25.65354783108302,0.0049367253342742
25.682275208273484,0.0010692005228198
25.711002585463945,0.0032689277562581
25.73972996265441,0.0033247561507758
25.768457339844872,0.0035701484204593
25.797184717035332,0.003386604968281
25.825912094225796,0.0026714595058176
25.85463947141626,0.0033618832222954
25.88336684860672,0.0032650765954721
25.912094225797183,0.0031518276425658
25.940821602987647,0.0033158778146805
25.969548980178107,0.0034928590497622
25.99827635736857,0.003385377981609
26.027003734559035,0.0033398748304539
26.055731111749495,0.0038528745720482
26.08445848893996,0.0036980990808248
26.113185866130426,0.0036451922229078
26.14191324332088,0.0037035034869682
26.170640620511342,0.003791061415986
26.19936799770181,0.0037150658824336
26.22809537489227,0.003554108013904
26.256822752082737,0.0036661213460851
26.285550129273197,0.0039549540540454
26.314277506463657,0.0035995905983234
26.34300488365412,0.003671416452088
26.371732260844585,0.0034586111346951
26.400459638035045,0.0035023088013239
26.42918701522551,0.0035730404643396
26.457914392415972,0.0035187024160701
26.486641769606432,0.0033760256461041
26.515369146796896,0.0033271972874539
26.544096523987356,0.0034636028075742
26.57282390117782,0.0035791323844691
26.601551278368284,0.0036144481255777
26.630278655558744,0.0036046735857105
26.659006032749208,0.0035618348352522
26.68773340993967,0.0032609656096013
26.71646078713013,0.0031617295897815
26.745188164320595,0.0034388853427123
26.77391554151106,0.0032375510547944
26.80264291870152,0.0033512344719003
26.831370295891983,0.0034150245579321
26.860097673082446,0.003360242049503
26.888825050272903,0.0034174349914667
26.91755242746337,0.003523999184257
26.94627980465383,0.003551621565184
26.975007181844298,0.0034237177406625
27.00373455903476,0.003728755471591
27.03246193622522,0.0035739745904944
27.06118931341568,0.0033949131511902
27.089916690606145,0.0033799471666247
27.11864406779661,0.0033324339890621
27.14737144498707,0.003357391232589
27.176098822177533,0.0033119503503317
27.204826199367997,0.0031906849224769
27.233553576558457,0.0033563675660305
27.26228095374892,0.0034190701471893
27.291008330939384,0.0033000531320359
27.319735708129844,0.0034326222749047
27.348463085320308,0.0035724460443053
27.37719046251077,0.0033336598605436
27.40591783970123,0.0033846626281126
27.434645216891695,0.0033090994694029
27.46337259408216,0.00326487740429
27.49209997127262,0.0031868162912635
27.520827348463083,0.0032778434341232
27.549554725653547,0.0036110002647434
27.578282102844007,0.0028167269944748
27.60700948003447,0.0032186446189887
27.635736857224934,0.0033222242283874
27.66446423441539,0.0032494470401148
27.693191611605855,0.003106830203457
27.72191898879632,0.0033887238644742
27.750646365986785,0.0031990029980795
27.77937374317725,0.0029157665425751
27.80810112036771,0.0032567314416026
27.83682849755817,0.0032171231768519
27.865555874748633,0.0029633684300959
27.894283251939097,0.0030129570311472
27.923010629129557,0.0032321743229174
27.95173800632002,0.0026055707072832
27.980465383510484,0.0029517997592513
28.009192760700945,0.0031204320574433
28.03792013789141,0.0030797181002125
28.066647515081872,0.003039958549893
28.095374892272332,0.0028368716838018
28.124102269462796,0.003021488606089
28.15282964665326,0.0030299613187925
28.18155702384372,0.0045363091914632
28.210284401034183,0.0040431469899969
28.239011778224647,0.006559419447298882
28.267739155415107,0.0120376693455002
28.29646653260557,0.0091412077195304
28.325193909796035,0.0065682221185101
28.353921286986495,0.0096544774141815
28.38264866417696,0.0112054927416486
28.411376041367426,0.0114834618079975
28.44010341855788,0.0115594942597608
28.468830795748342,0.0116099784989633
28.49755817293881,0.0111243207585295
28.52628555012927,0.0100439547739957
28.555012927319737,0.0078514555245537
28.583740304510197,0.0057160096666584
28.612467681700657,0.0045821615426134
28.64119505889112,0.004284612777695
28.669922436081585,0.0042589169786321
28.698649813272045,0.0040553591900424
28.72737719046251,0.0039420172441854
28.756104567652972,0.0039846237492793
28.784831944843432,0.0039273460076329
28.813559322033896,0.0037910779749835
28.84228669922436,0.0037277017905473
28.87101407641482,0.0036865155699794
28.899741453605284,0.0036957264879622
28.928468830795747,0.0036968846091718
28.957196207986208,0.0035921273328206
28.98592358517667,0.0036532132515081
29.014650962367135,0.0033807151444562
29.043378339557595,0.0034600771715605
29.07210571674806,0.0035184482290695
29.10083309393852,0.0036379508451439
29.129560471128983,0.0034598614781993
29.158287848319446,0.0032668156232764
29.18701522550991,0.0035143658787127
29.21574260270037,0.0033330650860978
29.24446997989083,0.00368056342811
29.273197357081298,0.0034857233415682
29.30192473427176,0.0034390550333549
29.33065211146222,0.0034446686858377
29.359379488652685,0.003397651198528
29.388106865843145,0.0033755460584546
29.41683424303361,0.0033450812428475
29.445561620224073,0.0031754913532606
29.474288997414533,0.0031113849645962
29.503016374604996,0.0033042270136574
29.53174375179546,0.0031493706733893
29.56047112898592,0.0036149344308873
29.589198506176384,0.0034322265274013
29.617925883366848,0.0035038366471345
29.646653260557308,0.0034984134679621
29.67538063774777,0.003434056453297
29.704108014938235,0.0034196278417935
29.732835392128695,0.0034453304100986
29.76156276931916,0.0033457607191616
29.790290146509623,0.0032126493223742
29.819017523700083,0.0032383494134529
29.847744900890547,0.0034502402455578
29.87647227808101,0.0033972243933643
29.90519965527147,0.0032487289686363
29.933927032461938,0.0033911694119763
29.9626544096524,0.0035266009797614
29.991381786842854,0.0034454232061574
30.02010916403332,0.0036569056023614
30.048836541223785,0.0035758180762611
30.07756391841425,0.0035434815878807
30.10629129560471,0.0035585587792328
30.135018672795173,0.0034994950313522
30.163746049985633,0.0034242535929761
30.192473427176097,0.0034303618201773
30.22120080436656,0.0033442888834944
30.24992818155702,0.0035110108490707
30.278655558747484,0.0035662127077594
30.307382935937948,0.0034831711084673
30.336110313128408,0.0034819776972333
30.364837690318872,0.0035249257562171
30.393565067509336,0.0035499229691963
30.422292444699796,0.0034334512484615
30.45101982189026,0.0034320268384794
30.479747199080723,0.0037169833888631
30.508474576271183,0.0030716149643841
30.537201953461647,0.003284768575883
30.56592933065211,0.0033591032622617
30.59465670784257,0.003289525567838
30.623384085033035,0.0034837044326565
30.6521114622235,0.00299578647727
30.68083883941396,0.003075310898841
30.709566216604426,0.003182952768906
30.73829359379489,0.0030917738839916
30.767020970985342,0.0031072290438812
30.79574834817581,0.0032797121613501
30.824475725366273,0.0031800902805884
30.853203102556733,0.0029483423886788
30.881930479747197,0.0031085095114939
30.91065785693766,0.0031078540801124
30.93938523412812,0.0030300582355672
30.968112611318585,0.0029584729255409
30.99683998850905,0.002917571681526
31.02556736569951,0.003020514345754
31.054294742889972,0.0030159345101732
31.083022120080436,0.0032460230502002
31.111749497270896,0.0030989772889607
31.14047687446136,0.0030734103706666
31.169204251651824,0.0033107215209487
31.197931628842284,0.0031325384577125
31.226659006032747,0.0030931520457457
31.25538638322321,0.003270332754685
31.28411376041367,0.0033708309786484
31.312841137604135,0.0031505358568555
31.3415685147946,0.0034593408534594
31.37029589198506,0.0033523208886689
31.39902326917552,0.0032430384429265
31.427750646365983,0.0033914105823321
31.456478023556446,0.0033008897545666
31.48520540074691,0.0031408009716986
31.513932777937377,0.0031519029665603
31.54266015512783,0.0030424208829071
31.571387532318298,0.0032846062183249
31.60011490950876,0.0031111447185295
31.62884228669922,0.0038481846039836
31.657569663889685,0.0034983029565437
31.68629704108015,0.003444826402154
31.71502441827061,0.003665495176926
31.743751795461073,0.0034938530624188
31.772479172651536,0.0036415691787779
31.801206549841996,0.0034805728068979
31.82993392703246,0.0031398911568474
31.858661304222924,0.0031876318611395
31.887388681413384,0.0033057581863314
31.916116058603848,0.0035325042356068
31.94484343579431,0.0029977435495103
31.97357081298477,0.0030505084526455
32.00229819017523,0.0030459837186839
32.031025567365695,0.0030292334469278
32.05975294455616,0.0027313008831499
32.08848032174662,0.0033516672159252
32.11720769893709,0.0031925098649693
32.14593507612755,0.0033043971167974
32.17466245331801,0.0033992989743789
32.20338983050847,0.003419927462099
32.232117207698934,0.0034409922004007
32.2608445848894,0.0034848553389368
32.28957196207986,0.0035681284769476
32.318299339270325,0.0037617052853044
32.34702671646078,0.0048692813552716
32.375754093651246,0.0071347827297801
32.40448147084171,0.0097590734867627
32.43320884803217,0.0118092166396684
32.46193622522264,0.0127025239438963
32.4906636024131,0.0127725934388535
32.51939097960356,0.0128330615980365
32.54811835679402,0.0128151138647671
32.576845733984484,0.0115473857820376
32.60557311117495,0.011435559477981
32.63430048836541,0.0142232395816769
32.663027865555875,0.0041694642244065
32.69175524274633,0.0044588525934045
32.720482619936796,0.0036316043973168
32.74920999712726,0.0039360432550118
32.77793737431772,0.0039243139164275
32.80666475150819,0.0036775592535461
32.83539212869865,0.0037978478229437
32.86411950588911,0.0038674199687129
32.89284688307957,0.0037978856470264
32.921574260270035,0.0037994392660106
32.9503016374605,0.0038131598867636
32.97902901465096,0.0037562799390677
33.007756391841426,0.0035736759550242
33.03648376903188,0.0034692006363164
33.065211146222346,0.0035281201842704
33.09393852341281,0.0035783774239056
33.12266590060327,0.003551711788148
33.15139327779374,0.0035870879689698
33.1801206549842,0.0035002137814427
33.20884803217466,0.0033514491450278
33.23757540936512,0.003475507353526
33.266302786555585,0.0037764867545715
33.29503016374605,0.0029923391247075
33.32375754093651,0.0031984083362315
33.352484918126976,0.0033800629314196
33.38121229531743,0.0034798669134256
33.409939672507896,0.0035655250478617
33.43866704969836,0.0035746571414917
33.46739442688882,0.0035889734967308
33.49612180407929,0.003580179023154
33.52484918126975,0.0035795537217858
33.55357655846021,0.0035737207292883
33.58230393565067,0.0035155701656321
33.611031312841135,0.0035058265992368
33.6397586900316,0.0035940272747586
33.66848606722206,0.0032346448721256
33.697213444412526,0.0032365383028381
33.72594082160298,0.0040283727291705
33.754668198793446,0.0035386047937156
33.78339557598391,0.0034829973007903
33.812122953174374,0.0037383535388304
33.84085033036484,0.003587160125589
33.8695777075553,0.0031466714598697
33.89830508474576,0.0041013630812989
33.92703246193622,0.003393348564816
33.955759839126685,0.0034050912285197
33.98448721631715,0.0034373543447925
34.01321459350761,0.0032916375088909
34.041941970698076,0.0035036181087203
34.07066934788853,0.0032244050419105
34.099396725078996,0.0030337972366839
34.12812410226946,0.0032437517756136
34.156851479459924,0.0032869565519267
34.18557885665039,0.0034024223357402
34.21430623384085,0.0034687374540239
34.24303361103131,0.0034063098381946
34.27176098822177,0.0035999049588831
34.300488365412235,0.0034297462460537
34.3292157426027,0.003274146262341
34.35794311979316,0.0033577362742394
34.386670496983626,0.0032921467913601
34.41539787417408,0.003191491377833
34.44412525136455,0.0032474963397273
34.47285262855501,0.0033830770502976
34.501580005745474,0.003336715424415
34.53030738293594,0.0033398144325821
34.5590347601264,0.0034984150797161
34.58776213731686,0.003304397647508
34.61648951450732,0.0033261204124146
34.645216891697785,0.0034608590048371
34.67394426888825,0.0034031694454783
34.70267164607871,0.0033481765552773
34.73139902326918,0.0033391640808556
34.76012640045963,0.0033174821350812
34.7888537776501,0.0032850828910829
34.81758115484056,0.0032851708321549
34.846308532031024,0.0031475439784705
34.87503590922149,0.0030277602455224
34.90376328641195,0.0031486408965013
34.93249066360241,0.0029673849156704
34.96121804079287,0.0031023661580922
34.989945417983336,0.0031301416799727
35.0186727951738,0.0030530953283631
35.04740017236426,0.0030970561701573
35.07612754955473,0.0033684855625922
35.10485492674518,0.0034042595932776
35.13358230393565,0.0033001450583539
35.16230968112611,0.0037573567355619
35.191037058316574,0.0035128111625913
35.21976443550704,0.0033799997783967
35.2484918126975,0.0035973626968478
35.27721918988796,0.0035270828436373
35.30594656707842,0.0032524375290901
35.334673944268886,0.0034680224156795
35.36340132145935,0.0034168018647113
35.39212869864981,0.0033468429085642
35.42085607584027,0.0032743046038178
35.44958345303073,0.0033111869713865
35.4783108302212,0.0032451741961781
35.50703820741166,0.0033311262590241
35.535765584602125,0.0034630357535425
35.56449296179259,0.0036951746010362
35.593220338983045,0.0036055204868226
35.62194771617351,0.0035763868168882
35.65067509336397,0.0035788783637403
35.679402470554436,0.003672178911933
35.7081298477449,0.0038269647801184
35.73685722493536,0.0040311897266595
35.76558460212582,0.0039170243809497
35.794311979316284,0.0036808282972482
35.82303935650675,0.0040392243580047
35.85176673369721,0.0042408609562094
35.880494110887675,0.0039824326072788
35.90922148807814,0.00393078454057
35.937948865268595,0.0038646441791813
35.96667624245906,0.00365747415642
35.99540361964952,0.0036181285448495
36.024130996839986,0.0037759713283769
36.05285837403045,0.0033605388544051
36.08158575122091,0.0034055056553944
36.11031312841137,0.0038490592639867
36.139040505601834,0.0035629218569711
36.1677678827923,0.0035153260345458
36.19649525998276,0.0039472682161231
36.225222637173225,0.0037137217481961
36.25395001436369,0.0032330098479832
36.282677391554145,0.0035664839898642
36.31140476874461,0.0033038834181473
36.34013214593507,0.0031888860246895
36.368859523125536,0.0032315670800402
36.397586900316,0.0025117198814951
36.426314277506464,0.0030408645196137
36.45504165469692,0.0073752937424497
36.483769031887384,0.0084391621722681
36.51249640907785,0.0111630335180335
36.54122378626831,0.0129882119485739
36.569951163458775,0.0112574265706256
36.59867854064924,0.0122537899301313
36.627405917839695,0.0149811033907003
36.65613329503016,0.0133136592423452
36.68486067222062,0.0111994522671481
36.713588049411086,0.0095072395533438
36.74231542660155,0.0081448820744526
36.771042803792014,0.0084407665356938
36.79977018098247,0.0077835430972359
36.828497558172934,0.0045793116103881
36.8572249353634,0.0037434655711172
36.88595231255386,0.0038549746856401
36.914679689744325,0.003984881368757
36.94340706693479,0.0035806951720172
36.972134444125246,0.0034007829915754
37.00086182131571,0.0034487000705932
37.02958919850617,0.0033573264939148
37.05831657569664,0.0031058546508988
37.0870439528871,0.0033183871440282
37.11577133007757,0.0029156248253946
37.14449870726802,0.0029100140268865
37.17322608445848,0.0031595921520465
37.20195346164895,0.0031070724912841
37.23068083883941,0.0030567955686403
37.259408216029875,0.0031512776905773
37.28813559322034,0.0032067387560169
37.3168629704108,0.0033218640229069
37.34559034760126,0.0033934118093549
37.37431772479172,0.0032909025107735
37.40304510198219,0.003172102690437
37.43177247917265,0.0032335704726895
37.460499856363114,0.0032439353434487
37.48922723355357,0.003235492285503
37.517954610744034,0.003280681689384
37.5466819879345,0.0032292744955326
37.57540936512496,0.003187852919896
37.604136742315426,0.0033970008156328
37.63286411950589,0.0035035462066192
37.661591496696346,0.0034054619522569
37.69031887388681,0.0032997324797492
37.71904625107727,0.003402901423216
37.74777362826774,0.003315287607374
37.7765010054582,0.0033239898758959
37.805228382648664,0.0033940839815532
37.83395575983912,0.0027411651021163
37.862683137029585,0.0035096758051348
37.89141051422005,0.0032032958894852
37.92013789141051,0.0037669088951085
37.948865268600976,0.0035199268873543
37.97759264579144,0.0035514852080012
38.006320022981896,0.0036268086625942
38.03504740017236,0.0035832004958747
38.06377477736282,0.0035136688678466
38.09250215455329,0.0034361765410571
38.12122953174375,0.0033602113424895
38.149956908934215,0.0033308480149998
38.17868428612467,0.0032402089639667
38.207411663315135,0.0032734678155557
38.2361390405056,0.0040069884537239
38.26486641769606,0.0026433566557731
38.293593794886526,0.0031742107797236
38.32232117207699,0.0034342028757599
38.351048549267446,0.0033547921775067
38.37977592645791,0.0034301539068815
38.408503303648374,0.0034539722827568
38.43723068083884,0.0033401545969094
38.4659580580293,0.0034806768774465
38.494685435219765,0.0035959888094575
38.52341281241022,0.0033014679576158
38.552140189600685,0.0032661144250868
38.58086756679115,0.0033391977375236
38.60959494398161,0.0032831387710856
38.63832232117208,0.00328699157531
38.66704969836254,0.003205507902409
38.69577707555299,0.0032510903094896
38.72450445274346,0.0033487893385789
38.75323182993392,0.0033623334439565
38.78195920712439,0.0033136841712557
38.81068658431485,0.0032601770602233
38.839413961505315,0.0032398462612873
38.86814133869577,0.0032422450203788
38.896868715886235,0.0034154638936891
38.9255960930767,0.0033921715458175
38.95432347026716,0.0030877720702703
38.983050847457626,0.0030115745069091
39.01177822464809,0.0030460952970591
39.04050560183855,0.0031306313704115
39.06923297902901,0.0031305501516559
39.097960356219474,0.0031273218301976
39.12668773340994,0.0031070090608095
39.1554151106004,0.0032617534545027
39.184142487790865,0.0019432485971571
39.21286986498132,0.003471844301868
39.241597242171785,0.0039763706232089
39.27032461936225,0.0028107057894281
39.29905199655271,0.002932144244376
39.32777937374318,0.0030282814271956
39.35650675093364,0.0029998872067884
39.3852341281241,0.0031149790182033
39.41396150531456,0.0028818882076713
39.442688882505024,0.0029863934191211
39.47141625969549,0.0028046916816296
39.50014363688595,0.0029416073000908
39.528871014076415,0.0031282164338295
39.55759839126687,0.0030591365197123
39.586325768457336,0.0030114146793801
39.6150531456478,0.0031939150364878
39.64378052283826,0.0031610888988044
39.67250790002873,0.0031925639918774
39.70123527721919,0.0038309881361476
39.72996265440965,0.0035985216429871
39.75869003160011,0.0034710209406198
39.787417408790574,0.0035939347841579
39.81614478598104,0.0035660585290366
39.8448721631715,0.0033956653953085
39.873599540361965,0.0033906405535504
39.90232691755242,0.0035479405601984
39.931054294742886,0.0033749431696871
39.95978167193335,0.0034009809578027
39.98850904912381,0.0034515346287258
40.01723642631428,0.0035361506934514
40.04596380350474,0.0035891789732172
40.0746911806952,0.0030370764602803
40.10341855788566,0.0037219629697001
40.132145935076124,0.0035225143397749
40.16087331226659,0.0031155644600777
40.18960068945705,0.0032385930877929
40.21832806664752,0.0032274964085266
40.24705544383797,0.0033073894260474
40.27578282102843,0.0035723105469985
40.3045101982189,0.0034173204073015
40.33323757540936,0.0033596698615368
40.36196495259983,0.0031568407423779
40.39069232979029,0.0035817699415752
40.41941970698075,0.003901296263928
40.44814708417121,0.0050812854760363
40.476874461361675,0.0091363542245579
40.50560183855214,0.0124190907314527
40.5343292157426,0.0121782072128001
40.563056592933066,0.012485934069574
40.59178397012352,0.0129006575940762
40.620511347313986,0.0128686053758339
40.64923872450445,0.0148784551441709
40.67796610169491,0.009374133893054
40.70669347888538,0.0064267066540749
40.73542085607584,0.006447588769600901
40.7641482332663,0.0004599166435649
40.79287561045676,0.004842481824642867
40.821602987647225,0.0090712441174834
40.85033036483769,0.0040724696757045
40.87905774202815,0.0025769650874286
40.907785119218616,0.0037457807418869
40.93651249640907,0.0034666685792217
40.965239873599536,0.0033334272845023
40.99396725079,0.0034625666554623
41.022694627980464,0.0035933274362761
41.05142200517093,0.0033484478503405
41.08014938236139,0.0035465014668173
41.10887675955185,0.003541098210838
41.13760413674231,0.0035035115667061
41.166331513932775,0.0034484657994897
41.19505889112324,0.0033517358186023
41.2237862683137,0.0033278398025478
41.25251364550416,0.003523664888317
41.28124102269462,0.003642245137749
41.309968399885086,0.0035302201365675
41.33869577707555,0.0035508510278259
41.367423154266014,0.0036027720347116
41.39615053145648,0.0034797814784985
41.424877908646934,0.0034822120733016
41.4536052858374,0.003406822906833
41.48233266302786,0.0034305373090846
41.511060040218325,0.0036226121333658
41.53978741740879,0.0031595827310907
41.56851479459925,0.0044683370160851
41.59724217178971,0.005492027622189
41.62596954898017,0.0011429160270635
41.65469692617064,0.0035658880604091
41.6834243033611,0.0043498320654182
41.71215168055157,0.0033530560901497
41.74087905774203,0.003337926524687
41.76960643493248,0.0038661424459077
41.79833381212295,0.0035369002105495
41.82706118931341,0.0031382892843126
41.855788566503875,0.0034852805070741
41.88451594369434,0.003415750821833
41.9132433208848,0.0032970843661304
41.94197069807526,0.0033938458731582
41.97069807526572,0.0033194644291685
41.99942545245619,0.0031592768486325
42.02815282964665,0.0031908946422098
42.056880206837114,0.0030457700363687
42.08560758402758,0.0030126702127872
42.114334961218034,0.0030134330550119
42.1430623384085,0.0029448088543767
42.17178971559896,0.0028922465894996
42.200517092789426,0.0028498805685923
42.22924446997989,0.0032476709517328
42.25797184717035,0.0033518526983142
42.28669922436081,0.0036990403013967
42.31542660155127,0.0031808954738136
42.34415397874174,0.0035941363590971
42.3728813559322,0.003340904696574
42.401608733122664,0.0036450276182951
42.43033611031313,0.0035001964087849
42.459063487503585,0.00362527934779
42.48779086469405,0.0033287875572483
42.51651824188451,0.0033808349999869
42.545245619074976,0.0032043552757521
42.57397299626544,0.0026023660877996
42.6027003734559,0.0036698337052524
42.63142775064636,0.0035328919039432
42.66015512783682,0.0032913894684005
42.68888250502729,0.0034193135362066
42.71760988221775,0.0034876865303533
42.746337259408214,0.0034655124024514
42.77506463659868,0.0035696935661363
42.803792013789135,0.0036456639958855
42.8325193909796,0.0032982030080986
42.86124676817006,0.0035313950242527
42.889974145360526,0.0034860294266695
42.91870152255099,0.0037080991815827
42.94742889974145,0.0037347937511523
42.97615627693191,0.0031476431144047
43.004883654122374,0.0033591297627666
43.03361103131284,0.0034428301778787
43.0623384085033,0.0034070389633096
43.091065785693765,0.0032280471771741
43.11979316288423,0.002493343729076
43.148520540074685,0.0035874173105316
43.17724791726515,0.0032125576206279
43.20597529445561,0.0030550622884036
43.23470267164608,0.0032940495450671
43.26343004883654,0.0033022030647913
43.292157426027,0.0036556848415538
43.32088480321746,0.0036582863097576
43.34961218040792,0.0035580539574721
43.37833955759839,0.0035029727146369
43.40706693478885,0.0034491252788429
43.435794311979315,0.0035592977591652
43.46452168916978,0.0037436511821619
43.493249066360235,0.0037362218898548
43.5219764435507,0.0035366421279828
43.55070382074116,0.0035400091109409
43.579431197931626,0.0033639108027601
43.60815857512209,0.0032869977988421
43.636885952312554,0.0040045115141521
43.66561332950301,0.002585362591299
43.694340706693474,0.0027581014059961
43.72306808388394,0.0031209858299602
43.7517954610744,0.0032575105434135
43.780522838264865,0.0031954162703621
43.80925021545533,0.0034323408130924
43.837977592645785,0.0034426372346581
43.86670496983625,0.003374458793705
43.89543234702671,0.003477785277582
43.924159724217176,0.0037001813902291
43.95288710140764,0.0036904318689164
43.981614478598104,0.0035319715345645
44.01034185578856,0.0034826763109798
44.039069232979024,0.0034685982423556
44.06779661016949,0.0034524777880398
44.09652398735995,0.0034497426256939
44.125251364550415,0.0034915591081476
44.15397874174088,0.0033625293628096
44.182706118931335,0.0030312792688053
44.2114334961218,0.003164218387964
44.24016087331226,0.0032889200179369
44.26888825050273,0.0033004204513269
44.29761562769319,0.0034591952137269
44.326343004883654,0.0028195652302832
44.35507038207411,0.0033448994893553
44.383797759264574,0.0051339794493918
44.41252513645504,0.0038458033464189
44.4412525136455,0.0080917456913655
44.469979890835965,0.0101443725484023
44.49870726802643,0.0139349946453599
44.527434645216886,0.0172843884805417
44.55616202240735,0.0206511902749997
44.58488939959781,0.0193945965566184
44.61361677678828,0.0186965473117028
44.64234415397874,0.0188982639866177
44.6710715311692,0.018667534143343
44.69979890835966,0.0171693150221653
44.72852628555013,0.0159747230980803
44.75725366274059,0.0090377158396581
44.78598103993105,0.0038444409848104
44.81470841712152,0.0046421073866259
44.84343579431198,0.0050553347271475
44.87216317150243,0.0047711401403336
44.9008905486929,0.0044497038295491
44.92961792588336,0.004316442755761
44.95834530307383,0.0044544944756384
44.98707268026429,0.0045566042854585
45.015800057454754,0.0042819180149749
45.04452743464521,0.0038975783975442
45.073254811835675,0.0035703220330283
45.10198218902614,0.0034093907538967
45.1307095662166,0.0034062388941273
45.159436943407066,0.0034476936445524
45.18816432059753,0.0034974827241999
45.216891697787986,0.0034425604123192
45.24561907497845,0.0032708685327537
45.27434645216891,0.0032645282808314
45.30307382935938,0.0032036109566747
45.33180120654984,0.003390357416235
45.360528583740304,0.0033368280796364
45.38925596093076,0.0032718781101707
45.417983338121225,0.0033498595875744
45.44671071531169,0.0031915374657042
45.47543809250215,0.0029733408746965
45.504165469692616,0.003142485616771
45.53289284688308,0.003204595115857
45.561620224073536,0.0030150173088581
45.590347601264,0.0029354197286833
45.619074978454464,0.0030092822542157
45.64780235564493,0.0031458282690216
45.67652973283539,0.003011420390213
45.705257110025855,0.0031152291660325
45.73398448721631,0.0031653306740589
45.762711864406775,0.0030615126894254
45.79143924159724,0.003211513688622
45.8201666187877,0.0033002193621271
45.848893995978166,0.0032490050446385
45.87762137316863,0.003158020856939
45.906348750359086,0.003293999967148
45.93507612754955,0.0031523084199376
45.963803504740014,0.0032169249153851
45.99253088193048,0.0032566311894609
46.02125825912094,0.0032114143222774
46.049985636311405,0.0032339872945776
46.07871301350186,0.0034554105058933
46.107440390692325,0.0035189274171713
46.13616776788279,0.0034897575741442
46.16489514507325,0.003355518942314
46.19362252226371,0.0033984225508556
46.22234989945418,0.0033794499820025
46.25107727664464,0.0032962646978812
46.2798046538351,0.0032249425386895
46.30853203102557,0.0031766538988119
46.33725940821603,0.0030233924029751
46.36598678540649,0.0029479918212546
46.394714162596955,0.0033455687770386
46.42344153978741,0.0031500872708912
46.452168916977875,0.0031181954921094
46.48089629416834,0.0032331407758747
46.5096236713588,0.0032328054276737
46.538351048549266,0.0028289404177164
46.56707842573973,0.0033545466797049
46.59580580293019,0.0035706271435911
46.62453318012065,0.0030688757567988
46.653260557311114,0.0031186026689088
46.68198793450158,0.0035347151226887
46.71071531169204,0.0032194639614981
46.739442688882505,0.0032212170421447
46.76817006607296,0.0034194353806828
46.796897443263425,0.0033872489552201
46.82562482045389,0.0033468019654629
46.85435219764435,0.0034191920462326
46.88307957483482,0.0035225294916755
46.91180695202528,0.0034489813803374
46.94053432921574,0.0034580877464901
46.9692617064062,0.0034928547645345
46.997989083596664,0.0032815357363727
47.02671646078713,0.003282832111784
47.05544383797759,0.0033763508629628
47.08417121516805,0.0033663162511428
47.11289859235851,0.0033513691755894
47.141625969548976,0.0032115482764384
47.17035334673944,0.0034836273415735
47.1990807239299,0.0034398452542566
47.22780810112037,0.0032040542758389
47.25653547831082,0.0032365889560164
47.28526285550129,0.0033409171904681
47.31399023269175,0.0033114758491833
47.342717609882214,0.003156109424507
47.37144498707268,0.003352587061597
47.40017236426314,0.0032095998968291
47.4288997414536,0.0031220108158431
47.45762711864406,0.0032173940091525
47.486354495834526,0.0032820654398208
47.51508187302499,0.0032221030988611
47.54380925021545,0.0032846814295779
47.57253662740592,0.0032583570022552
47.60126400459637,0.0033670104214753
47.62999138178684,0.0033376696688862
47.6587187589773,0.0032177496286277
47.687446136167765,0.0032511433397749
47.71617351335823,0.0032234849163069
47.74490089054869,0.0030848324645366
47.77362826773915,0.0030600983221328
47.80235564492961,0.0033952844351474
47.83108302212008,0.0034867485753062
47.85981039931054,0.0027736356348923
47.888537776501,0.0031388673304509
47.91726515369147,0.003144568389318
47.94599253088192,0.0030709759661304
47.97471990807239,0.0031073577141882
48.00344728526285,0.0030734118091153
48.032174662453315,0.0031786332239767
48.06090203964378,0.003165152048761
48.08962941683424,0.0031331545702846
48.1183567940247,0.0032236343834818
48.14708417121516,0.0029606391433283
48.175811548405626,0.003235989915657
48.20453892559609,0.0035065785130471
48.233266302786554,0.0033536107510467
48.26199367997702,0.0034683014250788
48.290721057167474,0.0034446771108989
48.31944843435794,0.0035279460791952
48.3481758115484,0.0036712134621526
48.376903188738865,0.0036763473655362
48.40563056592933,0.0028735705336569
48.43435794311979,0.0016543248412869
48.46308532031025,0.0066852554169058
48.49181269750071,0.0067070728300965
48.520540074691176,0.0069635544960225
48.54926745188164,0.0083765354304483
48.577994829072104,0.0114376342641336
48.60672220626257,0.0122812686637556
48.635449583453024,0.0122737791159434
48.66417696064349,0.0120344854190654
48.69290433783395,0.0092855303899813
48.721631715024415,0.0106973294150648
48.75035909221488,0.010487576265927
48.77908646940534,0.01054351243525
48.8078138465958,0.0061149553330482
48.83654122378626,0.0034278478827614
48.86526860097673,0.0037044024827106
48.89399597816719,0.0037469295705034
48.922723355357654,0.0034301586854461
48.95145073254812,0.0032884812285387
48.980178109738574,0.0035416279447239
49.00890548692904,0.0032400199284577
49.0376328641195,0.0032616996280244
49.066360241309965,0.003514742788195
49.09508761850043,0.00329425417353
49.12381499569089,0.0033304172328503
49.15254237288135,0.0031836903605204
49.18126975007181,0.0033142703372308
49.20999712726228,0.0032897481167991
49.23872450445274,0.0032530274274117
49.2674518816432,0.0032090635768671
49.29617925883367,0.0033370971365804
49.32490663602413,0.0031881607899218
49.35363401321459,0.0032290524522206
49.38236139040505,0.0032393952575449
49.411088767595515,0.0032075584685431
49.43981614478598,0.0032899819185855
49.46854352197644,0.0033102293773576
49.4972708991669,0.0032399954171756
49.52599827635736,0.0033462933622406
49.55472565354783,0.0033033170892248
49.58345303073829,0.0029464155647972
49.612180407928754,0.0031095523570241
49.64090778511922,0.0031448158600329
49.669635162309675,0.0031371019610826
49.69836253950014,0.003130041202439
49.7270899166906,0.0030782270132698
49.755817293881066,0.0030288454725782
49.78454467107153,0.0030494564076171
49.81327204826199,0.0031050327700377
49.84199942545245,0.00316700065626
49.87072680264291,0.0032643913529872
49.89945417983338,0.0033029644397583
49.92818155702384,0.0033425724741464
49.956908934214304,0.0034596493704051
49.98563631140477,0.0035423575676677
50.014363688595225,0.0034740413226676
50.04309106578569,0.0035189045695425
50.07181844297615,0.0036674030855666
50.100545820166616,0.0029522276103343
50.12927319735708,0.0028017801930363
50.15800057454754,0.0040805133770482
50.186727951738,0.003142802156132
50.21545532892846,0.0032053040332156
50.24418270611893,0.0033011507129949
50.27291008330939,0.0033294417933588
50.301637460499855,0.0035918373989832
50.33036483769032,0.0033303011206506
50.359092214880775,0.0030856299693715
50.38781959207124,0.0033513694807459
50.4165469692617,0.0033614114325144
50.445274346452166,0.0032821877602911
50.47400172364263,0.0031172290779578
50.50272910083309,0.0032147378910929
50.53145647802355,0.003260608944304
50.560183855214014,0.0032929681169467
50.58891123240448,0.003334255226745
50.61763860959494,0.0032245167258982
50.646365986785405,0.0031524391903289
50.67509336397587,0.0033112119639702
50.703820741166325,0.003092539239481
50.73254811835679,0.002893352325008
50.76127549554725,0.0029963588662826
50.79000287273771,0.0030128229180813
50.81873024992818,0.0028262317881477
50.84745762711864,0.0029671855482293
50.8761850043091,0.0030707432879712
50.90491238149957,0.0029933710163605
50.93363975869003,0.003230925179846
50.96236713588049,0.0033282553536124
50.991094513070955,0.0032313554227693
51.01982189026142,0.003229695217596
51.048549267451875,0.0031348264359845
51.07727664464234,0.0031782037639788
51.1060040218328,0.0029985341983195
51.134731399023266,0.0030525866379529
51.16345877621373,0.0030983648049916
51.192186153404194,0.0030633421578291
51.22091353059465,0.0029226048139522
51.249640907785114,0.0032415347486108
51.27836828497558,0.0034411161258071
51.30709566216604,0.003178551285061
51.335823039356505,0.0032001514095812
51.36455041654697,0.0030758580352724
51.393277793737425,0.0031284379609271
51.42200517092789,0.003297415833399
51.45073254811835,0.0032357733242159
51.47945992530882,0.0032265925922425
51.50818730249928,0.0031639228913078
51.536914679689744,0.0031882034661331
51.5656420568802,0.0034743974263974
51.594369434070664,0.0034339060239661
51.62309681126113,0.003450475493634
51.65182418845159,0.0033840957201137
51.680551565642055,0.0032563536808463
51.70927894283252,0.0032189976972036
51.738006320022976,0.0032374238819007
51.76673369721344,0.0032187728791039
51.7954610744039,0.0030838046033322
51.82418845159437,0.0030287919472181
51.85291582878483,0.0030248191078424
51.881643205975294,0.0030997003730702
51.91037058316575,0.0032733788211044
51.939097960356214,0.0033111071464574
51.96782533754668,0.0033026741207912
51.99655271473714,0.0031622377425894
52.025280091927605,0.0029970432789856
52.05400746911807,0.0030965830791174
52.082734846308526,0.0029592249529119
52.11146222349899,0.0031223447749289
52.14018960068945,0.0029211781054329
52.16891697787992,0.0029257734779606
52.19764435507038,0.0028280330341537
52.22637173226085,0.0029067535705706
52.2550991094513,0.0031703569742518
52.283826486641765,0.0030399335833169
52.31255386383223,0.0031297339006547
52.34128124102269,0.0034915321901157
52.37000861821315,0.0032898411482732
52.39873599540362,0.0033262249608121
52.42746337259408,0.0032415690132567
52.45619074978454,0.0031995486615799
52.484918126975,0.002120180558619
52.51364550416547,0.0054809225052417
52.54237288135593,0.0072231002921706
52.571100258546394,0.0073563239101097
52.59982763573685,0.0074459474946784
52.628555012927315,0.0092817186335381
52.65728239011778,0.0111508824351694
52.68600976730824,0.0110691314796013
52.714737144498706,0.0111694739593208
52.74346452168917,0.0109631994952841
52.772191898879626,0.0099897129273664
52.80091927607009,0.0088187528369504
52.82964665326055,0.0092170983245576
52.85837403045102,0.0077919806939252
52.88710140764148,0.0037459673052424
52.915828784831945,0.0025230862692359
52.9445561620224,0.0040904382366074
52.973283539212865,0.0035383739633775
53.00201091640333,0.0035627479182632
53.03073829359379,0.0031816032017747
53.059465670784256,0.00337728363765
53.08819304797471,0.0032441799359685
53.116920425165176,0.0034228433158773
53.14564780235564,0.0033892234966558
53.174375179546104,0.003317618504905
53.20310255673657,0.0033169005672683
53.23182993392703,0.0033451110062379
53.26055731111749,0.0033665854610156
53.28928468830795,0.003362567994925
53.318012065498415,0.003344120855776
53.34673944268888,0.0032941984772318
53.37546681987934,0.0032040300117422
53.404194197069806,0.0034324516414965
53.43292157426026,0.0034049910006642
53.46164895145073,0.0032586415428204
53.49037632864119,0.0033249057422217
53.519103705831654,0.0035728078966846
53.54783108302212,0.0031655391269845
53.57655846021258,0.0032549936487282
53.60528583740304,0.0033692439394045
53.6340132145935,0.0031890842372577
53.662740591783965,0.0032187697861301
53.69146796897443,0.0033207046170063
53.72019534616489,0.0032491628184262
53.74892272335536,0.003226919443878
53.77765010054581,0.0033442961614201
53.80637747773628,0.003398573811326
53.83510485492674,0.0033826978150219
53.8638322321172,0.0035974819005169
53.89255960930767,0.0035664318327534
53.92128698649813,0.0035170346817435
53.95001436368859,0.0035730418766833
53.97874174087905,0.0035702781080284
54.007469118069515,0.0034665422840817
54.03619649525998,0.0033923589005636
54.06492387245044,0.0034269145335484
54.09365124964091,0.0034120281524463
54.12237862683136,0.0032054175400158
54.15110600402183,0.0033236745796399
54.17983338121229,0.0032234974491855
54.208560758402754,0.0031884600927148
54.23728813559322,0.0034839166294138
54.26601551278368,0.0033097942544013
54.29474288997414,0.003370370299801
54.3234702671646,0.0034326073015109
54.352197644355066,0.003342332241354
54.38092502154553,0.0032430924929871
54.40965239873599,0.0034272277641413
54.43837977592646,0.0034812608218937
54.46710715311691,0.003376274283182
54.49583453030738,0.003412746286564
54.52456190749784,0.0033152109576296
54.553289284688304,0.0032107127989835
54.58201666187877,0.003316961630375
54.61074403906923,0.003242775761581
54.63947141625969,0.0033179958044855
54.66819879345015,0.0032924412054053
54.696926170640616,0.0032586801470285
54.72565354783108,0.0031705656539511
54.75438092502154,0.0031637166267357
54.78310830221201,0.0034001442671634
54.81183567940246,0.0033072375648691
54.84056305659293,0.003183630682663
54.86929043378339,0.0032527816581628
54.898017810973855,0.0034201257347949
54.92674518816432,0.0031641791936059
54.95547256535478,0.00326223278219
54.98419994254524,0.0032811952632154
55.0129273197357,0.0031761493384561
55.041654696926166,0.0031945926397843
55.07038207411663,0.0033369823475008
55.09910945130709,0.0030903797788535
55.12783682849756,0.0030801073524035
55.156564205688014,0.003203925229119
55.18529158287848,0.0031125249793684
55.21401896006894,0.0031386812981776
55.242746337259405,0.002993510176736
55.27147371444987,0.0030096386869914
55.30020109164033,0.0030814212022965
55.32892846883079,0.0031089836034142
55.35765584602125,0.003097580524015
55.38638322321171,0.0030858229567443
55.41511060040218,0.0031451455106493
55.44383797759264,0.0031652286736142
55.47256535478311,0.0031945637734829
55.50129273197357,0.0030713968318589
55.53002010916403,0.0029830840358111
55.55874748635449,0.0029718878743024
55.587474863544955,0.0029197541841671
55.61620224073542,0.0030980460094008
55.64492961792588,0.0030659172477798
55.67365699511634,0.002886118789296
55.7023843723068,0.0031373996238283
55.731111749497266,0.0031483200063488
55.75983912668773,0.0031120520969456
55.788566503878194,0.003065909199198
55.81729388106866,0.0031082651588417
55.846021258259114,0.0031494655507194
55.87474863544958,0.0030592201078133
55.90347601264004,0.0029457524880918
55.932203389830505,0.0029879527600118
55.96093076702097,0.0029401666099561
55.98965814421143,0.0029928675983362
56.01838552140189,0.0031095943334343
56.04711289859235,0.0030710682056199
56.07584027578282,0.0030704404078556
56.10456765297328,0.0030955710722281
56.133295030163744,0.0030517901022816
56.16202240735421,0.003055783267834
56.190749784544664,0.0030854626954047
56.21947716173513,0.0030034776383018
56.24820453892559,0.002957482989957
56.276931916116055,0.0029787332006576
56.30565929330652,0.0029805997677733
56.33438667049698,0.0029867779329827
56.36311404768744,0.0030709909654658
56.3918414248779,0.0031340991278519
56.42056880206837,0.0030749022771561
56.44929617925883,0.0030243308872458
56.478023556449294,0.0030323740348916
56.50675093363976,0.0028016067916657
56.535478310830214,0.0021739924010253
56.56420568802068,0.004355387695844
56.59293306521114,0.0076927137012457
56.621660442401605,0.0077579790404441
56.65038781959207,0.0154478151227103
56.67911519678253,0.0144998557440017
56.70784257397299,0.014581781592415
56.73656995116345,0.0143898667277391
56.76529732835392,0.0143201160634376
56.79402470554438,0.0143392508973315
56.82275208273485,0.0137547054668005
56.85147945992531,0.0098936037590688
56.880206837115765,0.0069296373753121
56.90893421430623,0.0046862325476585
56.93766159149669,0.0036368388570334
56.96638896868715,0.0037127805127713
56.99511634587762,0.0036424044968842
57.02384372306808,0.0034842463053261
57.05257110025854,0.0033708939659829
57.081298477449,0.0033940339838741
57.11002585463947,0.0034287736200575
57.13875323182993,0.0032491236235168
57.167480609020394,0.0033782121422768
57.19620798621086,0.0033157917533793
57.224935363401315,0.0031869600564794
57.25366274059178,0.0032034431658539
57.28239011778224,0.0032873702655948
57.311117494972706,0.0033406373188153
57.33984487216317,0.0034306534936851
57.36857224935363,0.0035174037774056
57.39729962654409,0.003437476368413
57.42602700373455,0.0034470962853394
57.45475438092502,0.0036225276548431
57.48348175811548,0.0034031424123819
57.512209135305945,0.0033956723324333
57.54093651249641,0.0032640178697984
57.569663889686865,0.0032230844594376
57.59839126687733,0.0033423295631775
57.62711864406779,0.0030370610684749
57.655846021258256,0.0032737502542795
57.68457339844872,0.0033574671477457
57.71330077563918,0.0029305476155412
57.74202815282964,0.0031260708245433
57.770755530020104,0.0032966105209427
57.79948290721057,0.0031003241891442
57.82821028440103,0.0030886506756832
57.856937661591495,0.0032114945361512
57.88566503878196,0.0030816521285817
57.914392415972415,0.0030620950100325
57.94311979316288,0.0030655614555866
57.97184717035334,0.002979628768614
58.000574547543806,0.0029233619042114
58.02930192473427,0.0029523803952087
58.05802930192473,0.0029229926955589
58.08675667911519,0.0030089235911594
58.115484056305654,0.0030697913877636
58.14421143349612,0.0026327596776731
58.17293881068658,0.0044317407907026
58.201666187877045,0.0034558812120595
58.23039356506751,0.0032473645848246
58.259120942257965,0.0033874079719277
58.28784831944843,0.0034593757659937
58.31657569663889,0.0033458402930715
58.34530307382936,0.0033998323469715
58.37403045101982,0.0032612618598752
58.40275782821029,0.0031287250906445
58.43148520540074,0.003081324611916
58.4602125825912,0.0028996972348838
58.48893995978167,0.0032399104642918
58.51766733697213,0.0029650169040713
58.546394714162595,0.0028046914498331
58.57512209135306,0.0028669162743533
58.603849468543515,0.0028042013283437
58.63257684573398,0.0030260191063398
58.66130422292444,0.0030454510121719
58.69003160011491,0.0032240537815865
58.71875897730537,0.0029134781820924
58.747486354495834,0.0030315144703878
58.77621373168629,0.003116924947415
58.804941108876754,0.0030566196746249
58.83366848606722,0.0030784702490172
58.86239586325768,0.0032065579423876
58.891123240448145,0.0032035834558154
58.9198506176386,0.0031681862307542
58.948577994829066,0.0030659351990205
58.97730537201953,0.003072864176191
59.00603274920999,0.0032545209494612
59.03476012640046,0.0032139781763676
59.06348750359092,0.0030473676467247
59.09221488078138,0.0031406819743829
59.12094225797184,0.0030411506164954
59.149669635162304,0.0030342944762138
59.17839701235277,0.0032695177881156
59.20712438954323,0.0033543184163966
59.235851766733695,0.0032236982222265
59.26457914392415,0.003201173409125
59.293306521114616,0.0032519485548884
59.32203389830508,0.0032439623491638
59.35076127549554,0.0032624209514233
59.37948865268601,0.0033305096032048
59.40821602987647,0.0031818342904078
59.43694340706693,0.002768015714745
59.46567078425739,0.0031564878148943
59.494398161447855,0.0036719753835296
59.52312553863832,0.0021364918103593
59.55185291582878,0.0032835502581474
59.580580293019246,0.0032908811032781
59.6093076702097,0.0031360197601569
59.638035047400166,0.0033193737427225
59.66676242459063,0.0032194130487412
59.69548980178109,0.0032837982566245
59.72421717897156,0.003311128223049
59.75294455616202,0.0031858980925621
59.78167193335248,0.0031949175553545
59.81039931054294,0.003357573034269
59.839126687733405,0.0030558135168555
59.86785406492387,0.0031862934131045
59.89658144211433,0.0028634274869219
59.9253088193048,0.0030586806377992
59.95403619649525,0.0030254423385416
59.98276357368571,0.002904802034117
60.01149095087618,0.0028979208615037
60.04021832806664,0.0031016746257551
60.06894570525711,0.0031177242803403
60.09767308244757,0.003285172598516
60.12640045963803,0.0035570999853641
60.15512783682849,0.0036253984748671
60.183855214018955,0.0035633420545569
60.21258259120942,0.0036355842546283
60.24130996839988,0.0036528301737985
60.270037345590346,0.003387616045031
60.2987647227808,0.0032790816750546
60.327492099971266,0.0035828722309609
60.35621947716173,0.0031761806512129
60.384946854352194,0.0030016384640272
60.41367423154266,0.0030701152818892
60.44240160873312,0.0031766784842534
60.47112898592358,0.0031425474783748
60.49985636311404,0.003289784123729
60.528583740304505,0.0035404078960284
60.55731111749497,0.003286727476591
60.58603849468543,0.0032825931960012
60.614765871875896,0.003241986089308
60.64349324906635,0.0033552192568942
60.672220626256816,0.002371499272376
60.70094800344728,0.0046934173495989
60.729675380637744,0.0083145261064698
60.75840275782821,0.0090809913140592
60.78713013501867,0.0087508615049684
60.81585751220913,0.0094165837006218
60.84458488939959,0.0115791798958974
60.873312266590055,0.0111649760891945
60.90203964378052,0.0114798945269151
60.93076702097098,0.0113982236912366
60.959494398161446,0.0094354024540264
60.9882217753519,0.0075599374851398
61.01694915254237,0.006708946597236
61.04567652973283,0.0044321663223789
61.074403906923294,0.0036657526272954
61.10313128411376,0.0036470865304799
61.13185866130422,0.0035759984913019
61.16058603849468,0.00318177653056
61.18931341568514,0.0032982103291972
61.218040792875605,0.0032369223350925
61.24676817006607,0.0033169173268546
61.27549554725653,0.0034913341005951
61.304222924447,0.0032332834341068
61.33295030163745,0.0035428831234174
61.36167767882792,0.0035169124455673
61.39040505601838,0.0034069490444523
61.41913243320885,0.0035237512546854
61.44785981039931,0.0036643245802637
61.47658718758977,0.0033405517393244
61.50531456478023,0.0033595784170367
61.53404194197069,0.0032953732800227
61.56276931916115,0.0030809892262199
61.59149669635162,0.0034252081526667
61.62022407354208,0.0029577148324284
61.64895145073255,0.0031839914330207
61.677678827923,0.0033769955441275
61.70640620511347,0.0030834522491983
61.73513358230393,0.0033737612807272
61.763860959494394,0.0028495002690452
61.79258833668486,0.0030117140643624
61.82131571387532,0.0031408900637775
61.85004309106578,0.0031248035461081
61.87877046825624,0.0032116807982851
61.907497845446706,0.0029705939749096
61.93622522263717,0.0030723350821456
61.96495259982763,0.0030711062266346
61.9936799770181,0.0029934327485511
62.02240735420855,0.0031529642612118
62.05113473139902,0.0028345927732692
62.07986210858948,0.0028001948109495
62.108589485779945,0.0031174526860059
62.13731686297041,0.0028196046329971
62.16604424016087,0.0029617439584034
62.19477161735133,0.003021740239902
62.22349899454179,0.0030082894431927
62.252226371732256,0.003142748854399
62.28095374892272,0.0030794871046519
62.30968112611318,0.0032731409189969
62.33840850330365,0.0034136122529026
62.367135880494104,0.0033703345903181
62.39586325768457,0.0033504559172583
62.42459063487503,0.0033344448786857
62.453318012065495,0.0032773517657039
62.48204538925596,0.0031878365374369
62.51077276644642,0.0033005441584026
62.53950014363688,0.0032313997231926
62.56822752082734,0.0029959337386632
62.596954898017806,0.0030667157450991
62.62568227520827,0.0031860428708332
62.65440965239873,0.0033008193199239
62.6831370295892,0.0034288815807107
62.711864406779654,0.0035333199282021
62.74059178397012,0.0034977457511296
62.76931916116058,0.0034610268082715
62.798046538351045,0.0034976062284973
62.82677391554151,0.0034453279860666
62.85550129273197,0.0034276828900911
62.88422866992243,0.0033313660175017
62.91295604711289,0.0030378678244808
62.94168342430336,0.0030594123929598
62.97041080149382,0.0028443899205855
62.99913817868429,0.0031460506041519
63.02786555587475,0.0028727175344571
63.0565929330652,0.0028875420295893
63.08532031025567,0.0031397703591362
63.11404768744613,0.00327963870525
63.142775064636595,0.0032837729108546
63.17150244182706,0.0031751376601564
63.20022981901752,0.0026864250490411
63.22895719620798,0.0033811306196795
63.25768457339844,0.005745849405414
63.28641195058891,0.0062911779400007
63.31513932777937,0.005801373902419
63.343866704969834,0.0057992305573294
63.3725940821603,0.0056383402200228
63.401321459350754,0.0056297415585704
63.43004883654122,0.0068056001854202
63.45877621373168,0.0049802352304986
63.487503590922145,0.0031166607327827
63.51623096811261,0.0030988056707578
63.54495834530307,0.0028949116107606
63.57368572249353,0.002720030147642
63.60241309968399,0.0029572220560773
63.63114047687446,0.0029062711602166
63.65986785406492,0.0028232832703441
63.688595231255384,0.0029255973281298
63.71732260844585,0.0029152130402585
63.746049985636304,0.0028747006641948
63.77477736282677,0.0030781990757393
63.80350474001723,0.0025785358628158
63.832232117207695,0.0031654521123717
63.86095949439816,0.0032334375108058
63.88968687158862,0.0024408204193745
63.91841424877908,0.0028647960053644
63.94714162596954,0.0029920412028296
63.97586900316001,0.0028930787932409
64.00459638035046,0.0028339562743217
64.03332375754093,0.0029622485618527
64.06205113473139,0.0029969014388702
64.09077851192185,0.0029273193172774
64.11950588911232,0.0032160833981424
64.14823326630278,0.0031293573418109
64.17696064349325,0.0030342468955451
64.20568802068371,0.0033187730708564
64.23441539787417,0.0031177556207166
64.26314277506464,0.0028863285034506
64.2918701522551,0.0031453124220172
64.32059752944556,0.0030390707773554
64.34932490663601,0.0031612512476899
64.37805228382648,0.0031467585432186
64.40677966101694,0.003272931236716
64.4355070382074,0.0028839108759401
64.46423441539787,0.0029765591503112
64.49296179258833,0.0033640205800823
64.5216891697788,0.0030228121548945
64.55041654696926,0.0030192914158759
64.57914392415972,0.0032896151257316
64.60787130135019,0.0032567933355319
64.63659867854065,0.0030168561486008
64.66532605573111,0.0034482847614054
64.69405343292156,0.0032409507063205
64.72278081011203,0.0060089093526503
64.75150818730249,0.0088635293784305
64.78023556449295,0.0097816541465285
64.80896294168342,0.0168536746663819
64.83769031887388,0.0167919281541227
64.86641769606435,0.0175984602299417
64.89514507325481,0.0159613088439523
64.92387245044527,0.0107943937848855
64.95259982763574,0.012238795036565784
64.9813272048262,0.0112925442653825
65.01005458201665,0.0045724044049697
65.03878195920711,0.0067727492600716645
65.06750933639758,0.0045812069058333
65.09623671358804,0.0036636167318769
65.1249640907785,0.0042879282158018
65.15369146796897,0.0043709996363616
65.18241884515943,0.0037324451205514
65.2111462223499,0.0039935063804999
65.23987359954036,0.0049581673933244
65.26860097673082,0.0025101122518617
65.29732835392129,0.003150769365885
65.32605573111175,0.0032529066398784
65.3547831083022,0.0033791287912635
65.38351048549266,0.0033181795235039
65.41223786268313,0.0034074200233944
65.44096523987359,0.0032292624457787
65.46969261706406,0.0032749530380157
65.49841999425452,0.0032955578026422
65.52714737144498,0.0032326748028546
65.55587474863545,0.0032454634340807
65.58460212582591,0.0032684286709027
65.61332950301637,0.003333870386102
65.64205688020684,0.0031555213373689
65.6707842573973,0.0032084738939093
65.69951163458775,0.0031200974812091
65.72823901177821,0.0032738130155431
65.75696638896868,0.003279693609742
65.78569376615914,0.0031684934128114
65.8144211433496,0.0030679688775227
65.84314852054007,0.00300344576272
65.87187589773053,0.0030360953424371
65.900603274921,0.0031602380549514
65.92933065211146,0.0031681387608265
65.95805802930192,0.0031827410183433
65.98678540649239,0.0018701126153242
66.01551278368285,0.005333945762847
66.0442401608733,0.0043633795382505
66.07296753806376,0.0030630401654339
66.10169491525423,0.0035068242468511
66.13042229244469,0.0035299471259016
66.15914966963516,0.0033636549977482
66.18787704682562,0.0033953760500187
66.21660442401608,0.003385691503466
66.24533180120655,0.0032919467036448
66.27405917839701,0.0033718967661508
66.30278655558747,0.0033683312697904
66.33151393277794,0.0032899458067346
66.3602413099684,0.0032852786236452
66.38896868715885,0.0031965374885224
66.41769606434931,0.0031854810133784
66.44642344153978,0.0030719335173673
66.47515081873024,0.00302785667183
66.5038781959207,0.0029806556337768
66.53260557311117,0.0029549959659314
66.56133295030163,0.0029775450664063
66.5900603274921,0.0029501037599297
66.61878770468256,0.0030680719995453
66.64751508187302,0.0030177555892473
66.67624245906349,0.0029660885297853
66.70496983625395,0.0031343124631462
66.7336972134444,0.0033063505891035
66.76242459063486,0.0032672431875575
66.79115196782533,0.0032284151147483
66.81987934501579,0.0034390762699196
66.84860672220626,0.0034326401434169
66.87733409939672,0.0034000535641631
66.90606147658718,0.0035098175878498
66.93478885377765,0.0035914921540401
66.96351623096811,0.0034370480300795
66.99224360815857,0.0034325169331183
67.02097098534904,0.0035163376282263
67.0496983625395,0.0031443277627318
67.07842573972995,0.0030282012346658
67.10715311692041,0.0034325648660768
67.13588049411088,0.0030826496475364
67.16460787130134,0.0028581442451908
67.1933352484918,0.00310336072556
67.22206262568227,0.0032718997758015
67.25079000287273,0.0033594993709396
67.2795173800632,0.0033486879172083
67.30824475725366,0.0033106787455956
67.33697213444412,0.0033710691668817
67.36569951163459,0.0034419454174668
67.39442688882505,0.0035601940944382
67.4231542660155,0.0032443360811947
67.45188164320597,0.0032376702938685
67.48060902039643,0.0032110337580232
67.50933639758689,0.0031786297613236
67.53806377477736,0.0030452858238874
67.56679115196782,0.0034410086990545
67.59551852915828,0.00391138948471
67.62424590634875,0.0020950704631631
67.65297328353921,0.0035858082016973
67.68170066072967,0.0034017484499753
67.71042803792014,0.0031924224652786
67.7391554151106,0.0032724287524634
67.76788279230105,0.0032155041042527
67.79661016949152,0.0033778852687614
67.82533754668198,0.003466614863502
67.85406492387244,0.0035787161572839
67.8827923010629,0.003851816344562
67.91151967825337,0.0038060403245335
67.94024705544383,0.0039721075701067
67.9689744326343,0.003885720249116
67.99770180982476,0.0039194785499709
68.02642918701522,0.0038266495095311
68.05515656420569,0.0039534388006743
68.08388394139615,0.0038872443270657
68.1126113185866,0.0035054421473797
68.14133869577707,0.0029608049488209
68.17006607296753,0.0034521627873456
68.19879345015799,0.0035578398611515
68.22752082734846,0.0032305332159423
68.25624820453892,0.0033500334008227
68.28497558172938,0.0031753033088142
68.31370295891985,0.0033230869402369
68.34243033611031,0.0033083968935841
68.37115771330078,0.0034199497786609
68.39988509049124,0.0032432449637511
68.4286124676817,0.0028422390817043
68.45733984487215,0.0041320652357713
68.48606722206262,0.0035519284591533
68.51479459925308,0.0037537759395874
68.54352197644354,0.0037744269566739
68.572249353634,0.0037878734347953
68.60097673082447,0.0034669621851501
68.62970410801493,0.0034177921574153
68.6584314852054,0.0047913385148388
68.68715886239586,0.0077671697291087
68.71588623958633,0.0111935055391619
68.74461361677679,0.0129143354786783
68.77334099396725,0.0130354528042042
68.8020683711577,0.0130375552725804
68.83079574834817,0.0131418202561241
68.85952312553863,0.0132310185707406
68.8882505027291,0.0119063583649472
68.91697787991956,0.0095911036086284
68.94570525711002,0.0071324205870634
68.97443263430048,0.0043337582858473
69.00316001149095,0.0037592702122353
69.03188738868141,0.0035748175286831
69.06061476587188,0.003590348771723
69.08934214306234,0.0035067575035323
69.1180695202528,0.00359261651942
69.14679689744325,0.0035833594617478
69.17552427463372,0.0034290512174134
69.20425165182418,0.0031321256555
69.23297902901464,0.0031958665420051
69.2617064062051,0.0035266607240953
69.29043378339557,0.0031883786316221
69.31916116058603,0.0030426031595303
69.3478885377765,0.0031549160134653
69.37661591496696,0.0031696086827312
69.40534329215743,0.0032486730120846
69.43407066934789,0.0033366253488995
69.46279804653835,0.0033198651416862
69.4915254237288,0.0031667560426348
69.52025280091927,0.0032060522217742
69.54898017810973,0.0030895337824081
69.5777075553002,0.0032933545976599
69.60643493249066,0.0033078971201144
69.63516230968112,0.0033439830544247
69.66388968687158,0.0033514232828169
69.69261706406205,0.0033540165286105
69.72134444125251,0.0035360092885594
69.75007181844298,0.0035237908126824
69.77879919563344,0.0036019930060654
69.8075265728239,0.0032365004968015
69.83625395001435,0.0032956302088202
69.86498132720482,0.0031196820927634
69.89370870439528,0.0031737168023767
69.92243608158574,0.0029508209953563
69.95116345877621,0.0031877118711098
69.97989083596667,0.0031421067025495
70.00861821315713,0.0030025154699488
70.0373455903476,0.0030437451551933
70.06607296753806,0.0030875293441111
70.09480034472853,0.003276814450566
70.12352772191899,0.0031594262069272
70.15225509910945,0.0032219708884607
70.1809824762999,0.0032430280445498
70.20970985349037,0.0030342602704649
70.23843723068083,0.0030625648633175
70.2671646078713,0.0029707224225482
70.29589198506176,0.0030118910894827
70.32461936225222,0.0030993789013133
70.35334673944269,0.0032497421331035
70.38207411663315,0.0032514900061757
70.41080149382361,0.003191762217575
70.43952887101408,0.003254090356034
70.46825624820454,0.0034850429602647
70.496983625395,0.0033970435245573
70.52571100258545,0.003273822472259
70.55443837977592,0.0032607351321776
70.58316575696638,0.0032207675407329
70.61189313415684,0.0029824528733608
70.64062051134731,0.0030474814886491
70.66934788853777,0.0032052455905309
70.69807526572824,0.0032149197020587
70.7268026429187,0.0030845371125653
70.75553002010916,0.0028949005911434
70.78425739729963,0.0032250666580994
70.81298477449009,0.0031361582905161
70.84171215168054,0.0031876915405232
70.870439528871,0.0030199971839435
70.89916690606147,0.0029462275753495
70.92789428325193,0.0030054760695028
70.9566216604424,0.0031476376235493
70.98534903763286,0.0031766200317361
71.01407641482332,0.0031438816284795
71.04280379201379,0.0032498304642703
71.07153116920425,0.0033355728679337
71.10025854639471,0.0033116136931406
71.12898592358518,0.0033482328861859
71.15771330077564,0.0033405805299054
71.18644067796609,0.0032294020271333
71.21516805515655,0.0033852826898482
71.24389543234702,0.0033666089264819
71.27262280953748,0.0032467227966685
71.30135018672794,0.0034207418054429
71.33007756391841,0.0034273873178514
71.35880494110887,0.0034235336491231
71.38753231829934,0.0033459368670905
71.4162596954898,0.0033964367772969
71.44498707268026,0.0034768525330153
71.47371444987073,0.0032974652738764
71.50244182706119,0.0033055683023815
71.53116920425164,0.0036085587118813
71.5598965814421,0.0031912615870605
71.58862395863257,0.0030685307390167
71.61735133582303,0.0031730447732066
71.6460787130135,0.0029653088317499
71.67480609020396,0.0030273405950745
71.70353346739442,0.003077367077287
71.73226084458489,0.0030398765439672
71.76098822177535,0.0027950851752185
71.78971559896581,0.0029611986078557
71.81844297615628,0.0028536656237531
71.84717035334674,0.0030162627902679
71.87589773053719,0.0029217870628591
71.90462510772765,0.0028024826031201
71.93335248491812,0.0028228009548934
71.96207986210858,0.0025398615054691
71.99080723929904,0.0031349405917539
72.01953461648951,0.0031053340800519
72.04826199367997,0.0027908489887387
72.07698937087044,0.0028468864742547
72.1057167480609,0.0029144957683947
72.13444412525136,0.00291813720436
72.16317150244183,0.0028155341444434
72.19189887963229,0.002777803329829
72.22062625682274,0.0028908096914268
72.2493536340132,0.0028762660344301
72.27808101120367,0.0028620481065668
72.30680838839413,0.0029652963610981
72.3355357655846,0.0030444010286244
72.36426314277506,0.0027598822854654
72.39299051996552,0.002839394674975
72.42171789715599,0.0030909127892644
72.45044527434645,0.0028277056186486
72.47917265153691,0.0029092218123368
72.50790002872738,0.0028403812535305
72.53662740591784,0.0029445420643658
72.56535478310829,0.0031317370713499
72.59408216029875,0.0027778961854563
72.62280953748922,0.0031231161414279
72.65153691467968,0.0049782984573404
72.68026429187015,0.0062366798265149
72.70899166906061,0.0088926919229837
72.73771904625107,0.0120181805922519
72.76644642344154,0.0141532833586671
72.795173800632,0.0143761420366444
72.82390117782246,0.0140084753779763
72.85262855501293,0.0146668232620638
72.88135593220339,0.0153320773379031
72.91008330939384,0.0117713206146812
72.9388106865843,0.0119777312669909
72.96753806377477,0.0073509756086097
72.99626544096523,0.0044862359369427
73.0249928181557,0.0050693486772862
73.05372019534616,0.0044636401059426
73.08244757253662,0.0036566510485548
73.11117494972709,0.0037573091338025
73.13990232691755,0.0037720479637178
73.16862970410801,0.0038134096693867
73.19735708129848,0.0036958887111093
73.22608445848894,0.0039099330107187
73.25481183567939,0.003773448083977
73.28353921286985,0.0035453995166258
73.31226659006032,0.0036470108854987
73.34099396725078,0.0033786626680505
73.36972134444125,0.0029599026842385
73.39844872163171,0.0034386417219077
73.42717609882217,0.0033371339313447
73.45590347601264,0.0030246662208335
73.4846308532031,0.0031986852247241
73.51335823039356,0.0029796227500302
73.54208560758403,0.0034887800917022
73.57081298477449,0.0032348751036595
73.59954036196494,0.0033588685652083
73.6282677391554,0.003314868409685
73.65699511634587,0.0032373324841486
73.68572249353633,0.0034372391332119
73.7144498707268,0.0035033809030749
73.74317724791726,0.0030948535649715
73.77190462510772,0.0032170487545619
73.80063200229819,0.0033622267974801
73.82935937948865,0.0032236076839399
73.85808675667911,0.0030174302292604
73.88681413386958,0.0032966152013221
73.91554151106004,0.0031945692430531
73.94426888825049,0.0032140135716418
73.97299626544095,0.0030613360875505
74.00172364263142,0.0030838147796536
74.03045101982188,0.0032076146514449
74.05917839701235,0.0030773477545747
74.08790577420281,0.0030771778379398
74.11663315139327,0.0030650610184801
74.14536052858374,0.0030770960958452
74.1740879057742,0.0032816267177451
74.20281528296466,0.0031006302835445
74.23154266015513,0.0030795285534297
74.26027003734559,0.0031186202984612
74.28899741453604,0.0030682609987045
74.3177247917265,0.00314293617208
74.34645216891697,0.0031419827681183
74.37517954610743,0.0029815744075208
74.4039069232979,0.0029946871591387
74.43263430048836,0.0031500973596137
74.46136167767882,0.0032841792099343
74.49008905486929,0.0032079641388467
74.51881643205975,0.00319337280524
74.54754380925021,0.0034938826800573
74.57627118644068,0.0035309129286966
74.60499856363114,0.003214429671027
74.63372594082159,0.0033783059740687
74.66245331801206,0.0034250798324871
74.69118069520252,0.0030758820182385
74.71990807239298,0.0031991128236547
74.74863544958345,0.0031097638843172
74.77736282677391,0.0029085165298868
74.80609020396437,0.0028845569935876
74.83481758115484,0.0030529976294079
74.8635449583453,0.0030218590637285
74.89227233553576,0.0033094771028019
74.92099971272623,0.0029511547208591
74.94972708991669,0.0031335531245631
74.97845446710714,0.0035982325130154
75.0071818442976,0.0026575036429159
75.03590922148807,0.003549586626409
75.06463659867853,0.0072673195426218
75.093363975869,0.00382203079000595
75.12209135305946,0.0032610014617982
75.15081873024992,0.003097836701344
75.17954610744039,0.0030989367649468
75.20827348463085,0.0030196598195535
75.23700086182131,0.0030459005913282
75.26572823901178,0.0029684606955264
75.29445561620224,0.0026201785838658
75.32318299339269,0.0028289110250674
75.35191037058316,0.0028180097129347
75.38063774777362,0.0030305475830197
75.40936512496408,0.0030421520156662
75.43809250215455,0.0031743966377385
75.46681987934501,0.003203991814599
75.49554725653547,0.003239505118889
75.52427463372594,0.0032487580661377
75.5530020109164,0.0032692111858316
75.58172938810687,0.0033074552430884
75.61045676529733,0.0033827927171035
75.63918414248779,0.0034080431012807
75.66791151967824,0.003251450986288
75.6966388968687,0.0032792978087346
75.72536627405917,0.0029437646198989
75.75409365124963,0.0033414134074125
75.7828210284401,0.0032707234513485
75.81154840563056,0.0032810223085371
75.84027578282102,0.0031516378809659
75.86900316001149,0.0030247640752866
75.89773053720195,0.0030138688980287
75.92645791439242,0.0030181514603679
75.95518529158288,0.0030595362223434
75.98391266877334,0.00297782863602
76.01264004596379,0.0028340315520509
76.04136742315426,0.003135957821162
76.07009480034472,0.0030018274930487
76.09882217753518,0.0030847330303093
76.12754955472565,0.0025853233953501
76.15627693191611,0.0025292574349095
76.18500430910657,0.0036447434516603
76.21373168629704,0.0029942879880835
76.2424590634875,0.0029796489161277
76.27118644067797,0.0026443008692706
76.29991381786843,0.0026026475597679
76.32864119505889,0.0032806003385896
76.35736857224934,0.0030130353851034
76.3860959494398,0.0031446477579215
76.41482332663027,0.0030720421519167
76.44355070382073,0.0029914936667357
76.4722780810112,0.0029384179705384
76.50100545820166,0.0032497110691112
76.52973283539212,0.0032135317271364
76.55846021258259,0.0032070043944219
76.58718758977305,0.0031202884546369
76.61591496696352,0.0029635296502148
76.64464234415398,0.0032916232763717
76.67336972134443,0.0032094077065862
76.70209709853489,0.0025177770738666
76.73082447572536,0.0049341032735184
76.75955185291582,0.0072218753835859
76.78827923010628,0.0073137664358926
76.81700660729675,0.0100708876571145
76.84573398448721,0.0144222598666979
76.87446136167767,0.014392269362914
76.90318873886814,0.0142678626727017
76.9319161160586,0.0143760832967072
76.96064349324907,0.0141512652609696
76.98937087043953,0.0138885874162226
77.01809824762998,0.0128035214476914
77.04682562482044,0.0076375305037115
77.0755530020109,0.0047027811534499
77.10428037920137,0.0043770392551768
77.13300775639183,0.0041704003373984
77.1617351335823,0.0033038616172423
77.19046251077276,0.0027477254152104
77.21918988796322,0.0031983267053596
77.24791726515369,0.0032360447533356
77.27664464234415,0.0029745376908996
77.30537201953462,0.0029511405910622
77.33409939672508,0.0030408953088057
77.36282677391553,0.0030481849512963
77.39155415110599,0.003088463845215
77.42028152829646,0.0031201299140921
77.44900890548692,0.0030928140985151
77.47773628267738,0.0032240793997454
77.50646365986785,0.0030923100968347
77.53519103705831,0.003234105671185
77.56391841424877,0.0035011366073847
77.59264579143924,0.0031856578680596
77.6213731686297,0.003249937268558
77.65010054582017,0.003044446842548
77.67882792301063,0.0032708407505851
77.70755530020108,0.003442415714707
77.73628267739154,0.0032012153875403
77.765010054582,0.0031634440766468
77.79373743177247,0.003188282077038
77.82246480896293,0.0032186296216382
77.8511921861534,0.0032196521151356
77.87991956334386,0.003155454045989
77.90864694053433,0.0030725746284132
77.93737431772479,0.0030832494790853
77.96610169491525,0.0030915693307673
77.99482907210572,0.003048649409087
78.02355644929618,0.003134034902304
78.05228382648663,0.0031348278749072
78.0810112036771,0.0030043685694838
78.10973858086756,0.0034385505308261
78.13846595805802,0.0038422964395619
78.16719333524848,0.0027139736507313
78.19592071243895,0.0031876624902824
78.22464808962941,0.003340128799127
78.25337546681988,0.0032063413552408
78.28210284401034,0.003061581689763
78.3108302212008,0.0033095690254425
78.33955759839127,0.0029107040330086
78.36828497558173,0.0029251093934712
78.39701235277218,0.0032849036434592
78.42573972996264,0.0032403952731725
78.4544671071531,0.0032368243719685
78.48319448434357,0.0032852335712766
78.51192186153403,0.0032580728237869
78.5406492387245,0.0032920492962194
78.56937661591496,0.0032068367293139
78.59810399310543,0.0030313280884091
78.62683137029589,0.0030136372738968
78.65555874748635,0.0030805475382409
78.68428612467682,0.0031020478640753
78.71301350186728,0.0031100668638279
78.74174087905773,0.0030939898485824
78.7704682562482,0.0030773724181164
78.79919563343866,0.0031048506620467
78.82792301062912,0.0031640518328366
78.85665038781958,0.0031531393107832
78.88537776501005,0.0030480126435444
78.91410514220051,0.0030511528105788
78.94283251939098,0.002976568106873
78.97155989658144,0.0028177701205879
79.0002872737719,0.0028459208727835
79.02901465096237,0.002986040485348
79.05774202815283,0.0030831366921294
79.08646940534328,0.0031346363581365
79.11519678253374,0.0031171003856364
79.14392415972421,0.003152547600418
79.17265153691467,0.0031946563579839
79.20137891410513,0.0032175440276262
79.2301062912956,0.0032714940415673
79.25883366848606,0.0032704918257645
79.28756104567653,0.0032604436196318
79.31628842286699,0.0032771433189144
79.34501580005745,0.0032678084929282
79.37374317724792,0.0031348559901313
79.40247055443838,0.0033549215584623
79.43119793162883,0.0033220652028186
79.4599253088193,0.0033586229018112
79.48865268600976,0.0033090201183493
79.51738006320022,0.0031588651138074
79.54610744039068,0.0032632875269347
79.57483481758115,0.0035840840614826
79.60356219477161,0.0027739198129776
79.63228957196208,0.0027651251472696
79.66101694915254,0.0028079315302068
79.689744326343,0.0028435536068603
79.71847170353347,0.0028479431840882
79.74719908072393,0.0029261330969812
79.77592645791438,0.0028573989825954
79.80465383510484,0.0029908469239794
79.83338121229531,0.003117425714607
79.86210858948577,0.0031327594766664
79.89083596667624,0.0030005642930622
79.9195633438667,0.0030116516486529
79.94829072105716,0.0030913060115083
79.97701809824763,0.003157801568623
80.00574547543809,0.0031500943244023
80.03447285262855,0.0031950602644171
80.06320022981902,0.003240152804048
80.09192760700948,0.0032643267315765
80.12065498419993,0.0033958242095978
80.1493823613904,0.0033846462760864
80.17810973858086,0.0032287913377064
80.20683711577132,0.0031165920638139
80.23556449296179,0.0029877411064314
80.26429187015225,0.0032511323624938
80.29301924734271,0.0030736290420103
80.32174662453318,0.003167787960246
80.35047400172364,0.0028978535312801
80.3792013789141,0.0028959477885053
80.40792875610457,0.0030983098520329
80.43665613329503,0.0029752773717268
80.46538351048548,0.0028825429141466
80.49411088767594,0.0030000549490329
80.52283826486641,0.0030197684008725
80.55156564205687,0.0029475796003707
80.58029301924734,0.003035718522688
80.6090203964378,0.0034531363996595
80.63774777362826,0.0029336906297664
80.66647515081873,0.0018629956813787
80.69520252800919,0.0054345061905124
80.72392990519965,0.0059895683101302
80.75265728239012,0.0090790667261524
80.78138465958058,0.0113788785524156
80.81011203677103,0.0140286991164776
80.8388394139615,0.0153406057555018
80.86756679115196,0.0150574810898208
80.89629416834242,0.0146051660291103
80.92502154553289,0.0138944063967747
80.95374892272335,0.0141021239139616
80.98247629991381,0.008478808331980068
81.01120367710428,0.0007904057889661
81.03993105429474,0.0002565376099618
81.0686584314852,0.0072242102531059
81.09738580867567,0.0051754827427203
81.12611318586613,0.0047727107757992
81.15484056305658,0.0038280374425212
81.18356794024704,0.0034228819573498
81.21229531743751,0.0031293107966407
81.24102269462797,0.0031643058311142
81.26975007181844,0.0038428982186098
81.2984774490089,0.0026232971584817
81.32720482619936,0.003074809684099
81.35593220338983,0.0033082709864027
81.38465958058029,0.0031432625838765
81.41338695777075,0.003123050722382
81.44211433496122,0.0030673460080009
81.47084171215168,0.0032369407616106
81.49956908934213,0.0033888545882222
81.5282964665326,0.0032259406497725
81.55702384372306,0.0032570276658187
81.58575122091352,0.0033381937485312
81.61447859810399,0.003299960554325
81.64320597529445,0.0042544649422848
81.67193335248491,0.0029085265914863
81.70066072967538,0.0030459111826685
81.72938810686584,0.0034185674232316
81.7581154840563,0.0032754183268954
81.78684286124677,0.0032615678840012
81.81557023843723,0.0032972251384653
81.84429761562768,0.0032015944361144
81.87302499281815,0.0029803531435387
81.90175237000861,0.0028450202195801
81.93047974719907,0.0034297437723168
81.95920712438954,0.003223912962004
81.98793450158,0.0031622815094053
82.01666187877046,0.0032460229136773
82.04538925596093,0.0033169703225997
82.07411663315139,0.0033317356436106
82.10284401034185,0.0032896255258842
82.13157138753232,0.003217509759719
82.16029876472278,0.003173220084072
82.18902614191323,0.0031930321193612
82.2177535191037,0.0032607149211072
82.24648089629416,0.0032753879151488
82.27520827348462,0.0032386422877367
82.30393565067509,0.0033178211658331
82.33266302786555,0.0033258203809602
82.36139040505601,0.0033756963386391
82.39011778224648,0.0033989320883619
82.41884515943694,0.0033422338405797
82.4475725366274,0.0033967206666555
82.47629991381787,0.0031824546666552
82.50502729100832,0.0032124268985489
82.53375466819878,0.0032695808059068
82.56248204538925,0.0032238926457925
82.59120942257971,0.0031235654074721
82.61993679977017,0.0031937296724343
82.64866417696064,0.0030450210585043
82.6773915541511,0.0030843473264657
82.70611893134156,0.0032018882599321
82.73484630853203,0.0031769253714289
82.76357368572249,0.0031586237374427
82.79230106291295,0.003244645281565
82.82102844010342,0.003171651190793
82.84975581729387,0.0030818790337134
82.87848319448433,0.003249427155324
82.9072105716748,0.003013500589227
82.93593794886526,0.0030935840408013
82.96466532605572,0.0030633165834519
82.99339270324619,0.0031323341827912
83.02212008043665,0.0030748691172845
83.05084745762711,0.0030983459412541
83.07957483481758,0.0030376831462
83.10830221200804,0.0030386927138818
83.1370295891985,0.0028726118521316
83.16575696638897,0.0030069165859928
83.19448434357942,0.0031921283980819
83.22321172076988,0.0032902394258079
83.25193909796035,0.0032974363525243
83.28066647515081,0.003250037149141
83.30939385234127,0.0032920658970408
83.33812122953174,0.0031861644523871
83.3668486067222,0.0033187782567427
83.39557598391266,0.002950065607379
83.42430336110313,0.0029832090833964
83.45303073829359,0.0029950579846448
83.48175811548406,0.002962981037301
83.51048549267452,0.0030032599561562
83.53921286986497,0.0030376074648452
83.56794024705543,0.0029969481900789
83.5966676242459,0.0030668159761205
83.62539500143636,0.0030470731645764
83.65412237862682,0.0030108428581241
83.68284975581729,0.0031149626436562
83.71157713300775,0.0032512025103465
83.74030451019821,0.0031257883875595
83.76903188738868,0.0030911657688849
83.79775926457914,0.0031599254336899
83.8264866417696,0.0030404498127485
83.85521401896007,0.0029021850122785
83.88394139615052,0.0028163780361381
83.91266877334098,0.0027567792892745
83.94139615053145,0.0027685680516508
83.97012352772191,0.0031093538564537
83.99885090491237,0.0031896768695374
84.02757828210284,0.0028163821933846
84.0563056592933,0.0034503562708226
84.08503303648376,0.0033398238972001
84.11376041367423,0.0035691495408931
84.14248779086469,0.0034614188048142
84.17121516805516,0.0035370753951568
84.19994254524562,0.0035604558860095
84.22866992243607,0.0033895176134292
84.25739729962653,0.0035001609864723
84.286124676817,0.0032096247813612
84.31485205400746,0.0031874592216054
84.34357943119792,0.0033549556722153
84.37230680838839,0.0032367698782399
84.40103418557885,0.003052581227665
84.42976156276931,0.0031903832018427
84.45848893995978,0.0030991763385345
84.48721631715024,0.0030568138822925
84.5159436943407,0.0031020221669851
84.54467107153117,0.0030705978761001
84.57339844872162,0.0030318471734029
84.60212582591208,0.0029886808746837
84.63085320310255,0.0025411603134372
84.65958058029301,0.00352315628097
84.68830795748347,0.0046276644465526
84.71703533467394,0.0073035979210244175
84.7457627118644,0.0044014893752308
84.77449008905486,0.0162631741427183
84.80321746624533,0.0124649429672376
84.83194484343579,0.0139972370218362
84.86067222062626,0.0157029190698831
84.88939959781672,0.0153486050845865
84.91812697500717,0.015326931484261
84.94685435219763,0.0152654131045028
84.9755817293881,0.0142528243420695
85.00430910657856,0.0114102503827197
85.03303648376902,0.0074593950172086
85.06176386095949,0.0044363417488353
85.09049123814995,0.00331103167294
85.11921861534042,0.0034430461487117
85.14794599253088,0.0033557436341851
85.17667336972134,0.0033080521881377
85.2054007469118,0.0036563365829022
85.23412812410227,0.0028868037149989
85.26285550129272,0.0030112975797049
85.29158287848318,0.0031983373532594
85.32031025567365,0.0030429065003889
85.34903763286411,0.0029793161619142
85.37776501005457,0.0029197389847178
85.40649238724504,0.0028918549744235
85.4352197644355,0.0028684640942848
85.46394714162597,0.0028031268230582
85.49267451881643,0.0027458344273759
85.52140189600689,0.0026047950918477
85.55012927319736,0.0025870008104717
85.57885665038782,0.0036570627559212
85.60758402757827,0.0030756159718467
85.63631140476873,0.0031751852036575
85.6650387819592,0.0033580404439645
85.69376615914966,0.0033514550117857
85.72249353634012,0.0033528678385633
85.75122091353059,0.003285045492702
85.77994829072105,0.0032629078722572
85.80867566791152,0.0031806467697719
85.83740304510198,0.0031527751442357
85.86613042229244,0.003177615941329
85.8948577994829,0.0031053360848825
85.92358517667337,0.0029513522739926
85.95231255386382,0.0029238600322063
85.98103993105428,0.0029410566234485
86.00976730824475,0.002886378444487
86.03849468543521,0.0026762988133732
86.06722206262567,0.0027475934025579
86.09594943981614,0.0029180489488278
86.1246768170066,0.0030448585308023
86.15340419419707,0.0032462539923695
86.18213157138753,0.0028964093892649
86.210858948578,0.0031555347796774
86.23958632576846,0.0030802996711215
86.26831370295892,0.0030311860651756
86.29704108014937,0.0029831849238188
86.32576845733983,0.0030841241832148
86.3544958345303,0.0030626725757913
86.38322321172076,0.0030188644382373
86.41195058891122,0.0030693199441329
86.44067796610169,0.0029346210325851
86.46940534329215,0.0029534966608751
86.49813272048262,0.0029849442141931
86.52686009767308,0.0029479395025319
86.55558747486354,0.0027566604419733
86.584314852054,0.0026738487185815
86.61304222924447,0.0030986481282599
86.64176960643492,0.0032598784249993
86.67049698362538,0.003340431552923
86.69922436081585,0.0031833717720935
86.72795173800631,0.0031855005801022
86.75667911519677,0.0031717327215817
86.78540649238724,0.0032563530923326
86.8141338695777,0.0033537003096283
86.84286124676817,0.0030880768512421
86.87158862395863,0.003246805618146
86.9003160011491,0.0036642851573255
86.92904337833956,0.0029388418130179
86.95777075553002,0.0017213170681704
86.98649813272047,0.0057229653715905
87.01522550991093,0.0010838777387176
87.0439528871014,0.0004516785936879
87.07268026429186,0.0044939442026276
87.10140764148233,0.0034245373720633
87.13013501867279,0.0027147355990276
87.15886239586325,0.0029227264628679
87.18758977305372,0.0028052480102251
87.21631715024418,0.0028199800827666
87.24504452743464,0.0029132478595759
87.27377190462511,0.002923042349876
87.30249928181557,0.0031289915657528
87.33122665900602,0.0030193587692724
87.35995403619648,0.0030383822528004
87.38868141338695,0.0030123919400491
87.41740879057741,0.0028750351298184
87.44613616776788,0.0028567992966349
87.47486354495834,0.0028868341870287
87.5035909221488,0.0028909975725276
87.53231829933927,0.0029176616621926
87.56104567652973,0.0027938584568878
87.5897730537202,0.0025933439425488
87.61850043091066,0.0032480383575354
87.64722780810112,0.0030077993503276
87.67595518529157,0.0029392973672479
87.70468256248203,0.0030265204994606
87.7334099396725,0.003009458068641
87.76213731686296,0.0029992953419104
87.79086469405343,0.0030033206147321
87.81959207124389,0.0029960440700531
87.84831944843435,0.0030280384647598
87.87704682562482,0.0029223205130074
87.90577420281528,0.0029508304120227
87.93450158000574,0.0029338363707495
87.96322895719621,0.0028912632281272
87.99195633438667,0.0029727398172546
88.02068371157712,0.0029726955312455
88.04941108876758,0.0029319478028188
88.07813846595805,0.002962942948963
88.10686584314851,0.0029645296579181
88.13559322033898,0.0030326790782004
88.16432059752944,0.0030118365512726
88.1930479747199,0.0029892417163678
88.22177535191037,0.0030223467134458
88.25050272910083,0.0030412673674644
88.2792301062913,0.0030512910106489
88.30795748348176,0.0032066782043881
88.33668486067221,0.0029736204493891
88.36541223786267,0.0029668353872633
88.39413961505313,0.0031847827230273
88.4228669922436,0.0032468044234996
88.45159436943406,0.0031871420920603
88.48032174662453,0.0031413500988232
88.50904912381499,0.0031322765441105
88.53777650100545,0.0030951445556096
88.56650387819592,0.0030765789768376
88.59523125538638,0.0031186802037879
88.62395863257684,0.0031346364076709
88.65268600976731,0.0030262063748797
88.68141338695776,0.0030934296017702
88.71014076414822,0.0030900775806823
88.73886814133868,0.0029947280596922
88.76759551852915,0.0031166722101218
88.79632289571961,0.0029101291629882
88.82505027291008,0.002687190399814
88.85377765010054,0.0063988434033689
88.882505027291,0.0115233179381782
88.91123240448147,0.0120220249526619
88.93995978167193,0.0187832563165614
88.9686871588624,0.019323787787869
88.99741453605286,0.0181995424715777
89.02614191324331,0.019294664445722
89.05486929043377,0.0216019677511131
89.08359666762424,0.0170387281161847
89.1123240448147,0.0159385027326651
89.14105142200516,0.0140889483090511
89.16977879919563,0.0108877108059551
89.19850617638609,0.0060632777048498
89.22723355357655,0.0029194614606401
89.25596093076702,0.0035461326761804
89.28468830795748,0.0033892937969406
89.31341568514794,0.003346253635285
89.34214306233841,0.0031504534887828
89.37087043952886,0.0031409881543523
89.39959781671932,0.0032069949796363
89.42832519390979,0.0032149343517982
89.45705257110025,0.0032308565060697
89.48577994829071,0.0031859603842077
89.51450732548118,0.0032255801669801
89.54323470267164,0.0032786221018453
89.5719620798621,0.0031921884993933
89.60068945705257,0.003183951295792
89.62941683424303,0.0032530668122013
89.6581442114335,0.0033650855272288
89.68687158862396,0.0031886486228777
89.71559896581441,0.0029370542267619
89.74432634300487,0.0030371927659554
89.77305372019534,0.0031088133601985
89.8017810973858,0.0031091825410647
89.83050847457626,0.0031830098199438
89.85923585176673,0.0030588126017887
89.88796322895719,0.0029848864324404
89.91669060614765,0.0030505658653501
89.94541798333812,0.0031791888256453
89.97414536052858,0.0032539423760254
90.00287273771904,0.0031221104207328
90.03160011490951,0.0030517187585112
90.06032749209996,0.0030118659002953
90.08905486929042,0.0030043551217422
90.11778224648089,0.0030703937206548
90.14650962367136,0.0030197732003229
90.1752370008618,0.0030102408385031
90.20396437805228,0.0030731429627046
90.23269175524274,0.0030606396844939
90.2614191324332,0.0030877928350227
90.29014650962368,0.003149762267958
90.31887388681412,0.0030633735827891
90.3476012640046,0.003009872898933
90.37632864119506,0.0030570018409833
90.40505601838552,0.0030418505150274
90.43378339557596,0.0030158941402729
90.46251077276644,0.0030053688570429
90.4912381499569,0.0030030413963145
90.51996552714736,0.0029789078388105
90.54869290433784,0.0029627124886881
90.57742028152828,0.0029969616181342
90.60614765871875,0.0029502662839686
90.63487503590922,0.0028693444287448
90.66360241309968,0.0028063256535716
90.69232979029016,0.0027942905493318
90.7210571674806,0.00283255010821
90.74978454467106,0.0028738084365575
90.77851192186152,0.0028504679253839
90.807239299052,0.0027174973342786
90.83596667624244,0.0029354524155898
90.86469405343291,0.0030056959043603
90.89342143062338,0.00289419184622
90.92214880781384,0.0028793821507754
90.9508761850043,0.0029288969840402
90.97960356219475,0.0030072304123013
91.00833093938525,0.0030635655352926
91.0370583165757,0.0030256606333526
91.06578569376616,0.0029815247997501
91.0945130709566,0.0029421562274387
91.12324044814709,0.0030011523972041
91.15196782533754,0.0029559861207742
91.180695202528,0.0027958388229138
91.20942257971846,0.0029308390867618
91.23814995690891,0.0031043326183109
91.2668773340994,0.0029451169936127
91.29560471128984,0.0030288745545185
91.32433208848032,0.0031828543146933
91.35305946567078,0.0032015371616267
91.38178684286125,0.0031776309302151
91.41051422005172,0.0032867303350772
91.43924159724216,0.0032248353824583
91.46796897443262,0.0030691917332128
91.49669635162309,0.0032062659613291
91.52542372881356,0.0032657251286308
91.554151106004,0.0029356668048711
91.58287848319448,0.0029395756954549
91.61160586038494,0.0032074377176963
91.6403332375754,0.0029522814210279
91.66906061476588,0.0030082536147616
91.69778799195632,0.0033037209573399
91.7265153691468,0.0033722151464927
91.75524274633726,0.0029581247719828
91.78397012352772,0.0032370328672233
91.81269750071816,0.0031525569620318
91.84142487790864,0.003189338989336
91.8701522550991,0.0034281753200881
91.89887963228956,0.0028767209906832
91.92760700948004,0.0028964166386765
91.95633438667048,0.0030159695343872
91.98506176386095,0.0030654324905144
92.01378914105142,0.0031778808883433
92.04251651824188,0.003172187230377
92.07124389543236,0.0031262557411528
92.0999712726228,0.0031265809168187
92.12869864981326,0.0031278459808642
92.15742602700372,0.003083001915189
92.1861534041942,0.0030784327852383
92.21488078138464,0.0030053381337561
92.24360815857511,0.0028227040883642
92.27233553576558,0.0028550641231831
92.30106291295604,0.0028592960949534
92.3297902901465,0.0028293592851914
92.35851766733695,0.0028108676043113
92.38724504452745,0.0027948741009622
92.4159724217179,0.002737816801752
92.44469979890836,0.0027464063509558
92.4734271760988,0.0028997100457066
92.50215455328927,0.0030319025613311
92.53088193047974,0.0030369455569207
92.5596093076702,0.0030351799263577
92.58833668486066,0.0030489415924278
92.61706406205111,0.0031198543146702
92.6457914392416,0.0031006538762809
92.67451881643206,0.003083108501314
92.70324619362252,0.0029262110134559
92.73197357081298,0.0034540212807128
92.76070094800345,0.0042432578775708
92.78942832519392,0.0004749725770995198
92.81815570238436,0.005797286608032
92.84688307957482,0.005053836256349617
92.87561045676529,0.0030186375464777543
92.90433783395576,0.009040618329789111
92.9330652111462,0.004210409231578287
92.96179258833668,0.0175807567363849
