timestamp,emg
0.0,0.0028855232427281
0.0287273771904625,0.0028704264424444
0.057454754380925,0.0029912174818924
0.0861821315713875,0.0030121954332179
0.11490950876185,0.0028206501227948
0.1436368859523125,0.0029015335295886
0.172364263142775,0.0029782058063615
0.2010916403332375,0.0026526377108544
0.2298190175237,0.002742494223816
0.2585463947141626,0.0027305606705569
0.2872737719046251,0.0025945154049464
0.3160011490950876,0.0024329303133747
0.3447285262855501,0.0027790944689813
0.3734559034760126,0.0026773679592731
0.4021832806664751,0.0028024017659571
0.4309106578569376,0.0026419805325875
0.4596380350474001,0.0026704729937021
0.4883654122378627,0.0028060391233226
0.5170927894283252,0.0027407009763815
0.5458201666187876,0.0025993381403777
0.5745475438092502,0.0026716124701213
0.6032749209997127,0.0025650590845596
0.6320022981901752,0.0025230205625888
0.6607296753806376,0.0024306199935398
0.6894570525711002,0.0026049036292302
0.7181844297615627,0.002694018371257
0.7469118069520252,0.0026480519144653
0.7756391841424878,0.0026573675142974
0.8043665613329503,0.0027832307333776
0.8330939385234127,0.0028092506118805
0.8618213157138752,0.0028305154280584
0.8905486929043378,0.002763730460612
0.9192760700948004,0.0027294638697951
0.9480034472852628,0.0027766042729012
0.9767308244757252,0.0026693188044985
1.0054582016661875,0.0027420367927544
1.0341855788566503,0.0027156461085391
1.062912956047113,0.0029456398366708
1.0916403332375753,0.0027809918612801
1.1203677104280378,0.0025436348516304
1.1490950876185004,0.0029092808870657
1.1778224648089628,0.0029226413513236
1.2065498419994254,0.0029259553243873
1.235277219189888,0.0029298258653671
1.2640045963803503,0.0028800853717223
1.292731973570813,0.0028490642899619
1.3214593507612753,0.0028759253361267
1.350186727951738,0.0033172824718159
1.3789141051422005,0.0022079690948755
1.4076414823326628,0.0018846124479693
1.4363688595231254,0.0064722605926498
1.465096236713588,0.0040716983043455
1.4938236139040504,0.002801280414868
1.522550991094513,0.0094467225708939
1.5512783682849756,0.0069735833223725
1.580005745475438,0.0061034449042033
1.6087331226659003,0.0066096491930915
1.637460499856363,0.0062518312103492
1.6661878770468257,0.0059444152085545
1.694915254237288,0.0056916003541613
1.7236426314277504,0.0045852951011483
1.752370008618213,0.0035779395247803
1.7810973858086756,0.0036667698169646
1.809824762999138,0.0038702627408872
1.8385521401896008,0.0038373627582752
1.8672795173800631,0.0036673555868176
1.8960068945705255,0.0036092927230921
1.924734271760988,0.0036013404292659
1.9534616489514507,0.003483901983117
1.982189026141913,0.0034402516137961
2.010916403332375,0.0033118135675521
2.0396437805228382,0.0029072688208895
2.0683711577133006,0.0032346546772765
2.097098534903763,0.003198489812206
2.125825912094226,0.0028716974780865
2.154553289284688,0.0029109130205776
2.1832806664751505,0.0030866026285406
2.2120080436656133,0.0028598665732793
2.2407354208560757,0.0029798294957081
2.269462798046538,0.0029991725851868
2.298190175237001,0.0029248791823208
2.3269175524274632,0.0030521899374576
2.3556449296179256,0.0032534902060839
2.3843723068083884,0.0031700331860673
2.4130996839988508,0.0029994119829316
2.441827061189313,0.0030551340610963
2.470554438379776,0.003044722584162
2.4992818155702383,0.0029925303302243
2.5280091927607007,0.0029560036686535
2.5567365699511635,0.0032348186028039
2.585463947141626,0.0026142122681581
2.614191324332088,0.0026791294301543
2.6429187015225506,0.0031767830055356
2.6716460787130134,0.0029050206750227
2.700373455903476,0.0026489752054762
2.729100833093938,0.0029823941595449
2.757828210284401,0.0029018149444471
2.7865555874748633,0.003076068021387
2.8152829646653257,0.0029149250949329
2.8440103418557885,0.0029294359839031
2.872737719046251,0.0028694501918185
2.9014650962367132,0.002794393810267
2.930192473427176,0.0028171821335447
2.9589198506176384,0.0028469092412577
2.9876472278081008,0.0027153652076788
3.0163746049985636,0.0027722055306883
3.045101982189026,0.0027278424819803
3.0738293593794883,0.0027101525129407
3.102556736569951,0.0028794527756876
3.1312841137604135,0.0030572663599489
3.160011490950876,0.0027998215205634
3.1887388681413387,0.0029240020730719
3.217466245331801,0.0030642772194181
3.2461936225222634,0.0030979403512068
3.274920999712726,0.0030136197135444
3.303648376903189,0.0029329544903486
3.332375754093651,0.0029757968882431
3.3611031312841133,0.0029900751282838
3.389830508474576,0.0027804802838083
3.4185578856650385,0.0029452394850723
3.447285262855501,0.0030671119958948
3.4760126400459637,0.0028637940909024
3.504740017236426,0.0028722125480625
3.5334673944268884,0.0028771629236047
3.562194771617351,0.0028630239124625
3.5909221488078136,0.0028581594254195
3.619649525998276,0.002740518076055
3.648376903188739,0.0027531450475462
3.677104280379201,0.0027887898443682
3.705831657569663,0.0026153824727918
3.7345590347601263,0.0027640857601332
3.7632864119505887,0.0026942560715567
3.792013789141051,0.0028446945178728
3.820741166331514,0.0029252672447014
3.849468543521976,0.0027132020671206
3.8781959207124386,0.0028661361865425
3.9069232979029014,0.0027671120785365
3.935650675093364,0.0025431510153596
3.964378052283826,0.002867212030211
3.993105429474289,0.0027752597002972
4.021832806664751,0.0026128717769812
4.050560183855214,0.0026092700893127
4.0792875610456765,0.0026193043778206
4.108014938236138,0.0026591862164853
4.136742315426601,0.0027366179981859
4.165469692617064,0.0026600199122467
4.194197069807526,0.0026390937386218
4.222924446997989,0.0027810477082613
4.251651824188452,0.0026668892447895
4.2803792013789135,0.0027707286309558
4.309106578569376,0.0028355645531081
4.337833955759839,0.0027269311305527
4.366561332950301,0.0027137842711112
4.395288710140764,0.002747528032445
4.424016087331227,0.0025689318258692
4.452743464521689,0.0026086200741431
4.481470841712151,0.002654923159595
4.510198218902614,0.0026254066015003
4.538925596093076,0.0026178429812923
4.567652973283539,0.0027095477400132
4.596380350474002,0.0029313795106563
4.625107727664464,0.0030593278881283
4.6538351048549265,0.0023509130970474
4.682562482045389,0.0029307499726106
4.711289859235851,0.003184423650947
4.740017236426314,0.0026802950903337
4.768744613616777,0.0027579149589685
4.797471990807239,0.0025083840286355
4.8261993679977016,0.0024158053768539
4.854926745188164,0.0024502750345377
4.883654122378626,0.0026681761701763
4.912381499569089,0.0024761796414262
4.941108876759552,0.0024316121943731
4.969836253950014,0.0025255501776653
4.998563631140477,0.0025888572082052
5.0272910083309394,0.0029809299536339
5.056018385521401,0.0023863278561943
5.084745762711864,0.005753573288174417
5.113473139902327,0.0097415294065233
5.142200517092789,0.0078376701589839
5.170927894283252,0.0089861251455059
5.199655271473714,0.0093616949317771
5.2283826486641765,0.0092610987463199
5.257110025854639,0.0095991781201711
5.285837403045101,0.0077842166184986
5.314564780235564,0.0055740556982314
5.343292157426027,0.0060718147443335
5.372019534616489,0.0035850668496044
5.4007469118069515,0.0034496842801326
5.429474288997414,0.0035905578435894
5.458201666187876,0.0036297304902644
5.486929043378339,0.0035839843378095
5.515656420568802,0.0033835370122092
5.544383797759264,0.0034383733480901
5.573111174949727,0.0032865198738184
5.601838552140189,0.0032203696178816
5.630565929330651,0.0030430494477467
5.659293306521114,0.003119614333099
5.688020683711577,0.0022851677475076
5.716748060902039,0.0027516635573599
5.745475438092502,0.0036867087816927
5.7742028152829645,0.0030305327397061
5.8029301924734265,0.0029466691008866
5.831657569663889,0.0029544800994281
5.860384946854352,0.0029279110648016
5.889112324044814,0.002901724326349
5.917839701235277,0.0030908172072755
5.94656707842574,0.0027797037749507
5.9752944556162015,0.0024954302834022
6.004021832806664,0.0030722949513752
6.032749209997127,0.0029467973269061
6.061476587187589,0.0029078221954193
6.090203964378052,0.002971783714497
6.118931341568515,0.0029996830687035
6.147658718758977,0.0029716141088169
6.176386095949439,0.0030351405425101
6.205113473139902,0.0033134784878422
6.233840850330364,0.0027942764886152
6.262568227520827,0.003007004258552
6.29129560471129,0.0030724189810314
6.320022981901752,0.0029729871314041
6.3487503590922145,0.0029273365809164
6.377477736282677,0.0028215589849082
6.406205113473139,0.0027220214186562
6.434932490663602,0.002715292560366
6.463659867854065,0.0027336718335454
6.492387245044527,0.0027074018789556
6.52111462223499,0.0026229919124281
6.549841999425452,0.0025765163388697
6.578569376615914,0.0026091400183398
6.607296753806377,0.0026680296121093
6.636024130996839,0.002692000995786
6.664751508187302,0.0027240450487126
6.693478885377765,0.0027615598872676
6.722206262568227,0.0028436335141833
6.750933639758689,0.002881372503967
6.779661016949152,0.0027308690606884
6.808388394139614,0.0029016611714835
6.837115771330077,0.0029224258874963
6.86584314852054,0.0028818624954626
6.894570525711002,0.0028526865985052
6.9232979029014645,0.0028139777955672
6.952025280091927,0.0028579073953473
6.980752657282389,0.0029088210164011
7.009480034472852,0.0030592271813084
7.038207411663315,0.0027326130972208
7.066934788853777,0.0026772147416263
7.09566216604424,0.002835683789301
7.124389543234702,0.0028733804526745
7.153116920425164,0.0028519961059677
7.181844297615627,0.0028300545454791
7.21057167480609,0.0027039768772967
7.239299051996552,0.0025917284226528
7.268026429187015,0.00292516020905
7.296753806377477,0.0028006862077731
7.325481183567939,0.0026526292325056
7.354208560758402,0.0028455612433122
7.382935937948865,0.0028665726055064
7.411663315139327,0.0027970260906966
7.44039069232979,0.0027412585256347
7.469118069520253,0.0027221333061314
7.497845446710715,0.0027191356671834
7.526572823901177,0.0027045507724897
7.55530020109164,0.0026571885737965
7.584027578282102,0.0025926466247876
7.612754955472565,0.0025566635111384
7.641482332663028,0.0026295540104266
7.67020970985349,0.00273548622351
7.698937087043952,0.0027343481233566
7.727664464234415,0.0027939356336184
7.756391841424877,0.0028119500885775
7.78511921861534,0.0028393859187776
7.813846595805803,0.0028569534513827
7.842573972996265,0.0028895946757791
7.871301350186728,0.0029174058124744
7.90002872737719,0.0029028015227774
7.928756104567652,0.0030340786158301
7.957483481758115,0.002914209049895
7.986210858948578,0.0030019414755114
8.01493823613904,0.0030567647776435
8.043665613329502,0.0030704750997763
8.072392990519965,0.0030881554452835
8.101120367710427,0.0029183905394687
8.12984774490089,0.0030258101241279
8.158575122091353,0.0029071518244096
8.187302499281815,0.0029982231934076
8.216029876472277,0.002993078054252
8.24475725366274,0.0027080083073232
8.273484630853202,0.0028714421856944
8.302212008043664,0.0029320400460131
8.330939385234128,0.0026274322137184
8.35966676242459,0.002922849803231
8.388394139615052,0.0030480487143318
8.417121516805516,0.0028713378979649
8.445848893995977,0.002821267423638
8.47457627118644,0.0027834049148374
8.503303648376903,0.003009414052102
8.532031025567365,0.0029685381767777
8.560758402757827,0.0028550266085998
8.58948577994829,0.0027584978100998
8.618213157138753,0.0027661654599277
8.646940534329215,0.0028653316439727
8.675667911519678,0.0027541762257666
8.70439528871014,0.0029232934797552
8.733122665900602,0.0030444675455797
8.761850043091066,0.0030094542398893
8.790577420281528,0.003063629538773
8.81930479747199,0.0029023142503427
8.848032174662453,0.00292008098786
8.876759551852915,0.0038721145837503
8.905486929043377,0.0024918214748655
8.93421430623384,0.0029336036532731
8.962941683424303,0.0028355903780542
8.991669060614765,0.0029156573054644
9.020396437805228,0.0029467175480692
9.04912381499569,0.0029844954460252
9.077851192186152,0.0030109641071971
9.106578569376616,0.004185779747119
9.135305946567078,0.0056524324307558
9.16403332375754,0.0049997096342659
9.192760700948003,0.0120768494763333
9.221488078138464,0.0130361678711652
9.250215455328927,0.0129626339126907
9.278942832519393,0.0130799049885757
9.307670209709851,0.0133392297232662
9.336397586900317,0.0117597176453427
9.36512496409078,0.0115273460847735
9.39385234128124,0.0141186448811382
9.422579718471702,0.0047777312643718
9.451307095662166,0.0037493045130984
9.480034472852628,0.0038360373464735
9.50876185004309,0.0037638461329023
9.537489227233554,0.0039815211929406
9.566216604424016,0.0035442347156755
9.594943981614476,0.0035509495681175
9.62367135880494,0.0033469708921382
9.652398735995405,0.0033120907904573
9.681126113185863,0.0032038200675167
9.709853490376329,0.0035586952865921
9.73858086756679,0.0032751425134299
9.767308244757253,0.0028187573624211
9.796035621947716,0.0035534088394226
9.824762999138178,0.00352144446442
9.85349037632864,0.0032369129841637
9.882217753519104,0.0032694961161164
9.910945130709566,0.0033918636077729
9.939672507900028,0.0034228444831614
9.968399885090491,0.0033985167940567
9.997127262280951,0.0034216634069226
10.025854639471415,0.003318909758192
10.05458201666188,0.0031978099232447
10.08330939385234,0.0034782610694853
10.112036771042805,0.0032793237596318
10.140764148233266,0.0030678804290575
10.169491525423728,0.0033346483539906
10.19821890261419,0.0034706862925915
10.226946279804654,0.0034313667887113
10.255673656995116,0.0033001317674469
10.284401034185578,0.0034073728339438
10.31312841137604,0.0033108448101154
10.341855788566503,0.0033248658253873
10.370583165756964,0.0033591802743041
10.399310542947427,0.0028367446524891
10.428037920137893,0.0029400749962769
10.456765297328351,0.0029810516387215
10.485492674518817,0.0029885995963451
10.51422005170928,0.0029114957913085
10.54294742889974,0.0028558137471833
10.571674806090202,0.0028888319109025
10.600402183280666,0.0028003892958995
10.629129560471128,0.0028582121285567
10.65785693766159,0.0027115691172504
10.686584314852054,0.0026987892926603
10.715311692042516,0.0028495601008261
10.744039069232976,0.0028102096905019
10.77276644642344,0.002625217012383
10.801493823613905,0.0032339574802452
10.830221200804363,0.0031794787272408
10.858948577994829,0.0029373540049332
10.88767595518529,0.0030901148611738
10.916403332375753,0.0031776671051417
10.945130709566216,0.0028326970379984
10.973858086756678,0.0030857522607622
11.00258546394714,0.0030321456773162
11.031312841137604,0.003021102357302
11.060040218328066,0.0028131839085126
11.088767595518528,0.0029007120337813
11.117494972708991,0.0029349136907595
11.146222349899451,0.0028030660380322
11.174949727089915,0.0028985358560726
11.20367710428038,0.0029730482509763
11.23240448147084,0.0030245190395673
11.261131858661305,0.0030296270093485
11.289859235851766,0.0030664878631193
11.318586613042228,0.0029891764794913
11.34731399023269,0.0031805925324452
11.376041367423154,0.0030486549668136
11.404768744613616,0.0030260550691139
11.433496121804078,0.0034601350220222
11.462223498994542,0.0031070635099584
11.490950876185003,0.0028316662304098
11.519678253375464,0.0030921758866488
11.548405630565927,0.0031256952643229
11.577133007756393,0.0032327973199928
11.605860384946851,0.0029740974067798
11.634587762137317,0.00298429202287
11.66331513932778,0.0029622249477499
11.69204251651824,0.0031379851395652
11.720769893708704,0.0032767288320015
11.749497270899166,0.0026594062598963
11.778224648089628,0.003124027240858
11.806952025280092,0.0030872333781847
11.835679402470554,0.0030929145689224
11.864406779661016,0.0030236555830943
11.89313415685148,0.0028579599795531
11.92186153404194,0.0028884443507582
11.950588911232405,0.0029691414184929
11.979316288422869,0.0030794367186466
12.008043665613329,0.0026050269638875
12.03677104280379,0.002539324218326
12.065498419994254,0.0027018090661589
12.094225797184716,0.0027673178992767
12.122953174375178,0.0028818051761336
12.151680551565642,0.0029429877878679
12.180407928756104,0.0027981973174545
12.209135305946566,0.0026048151371511
12.23786268313703,0.0031522698456331
12.266590060327491,0.0030176063138749
12.295317437517951,0.0029332867592506
12.324044814708415,0.0029740816605524
12.35277219189888,0.0027335851565445
12.38149956908934,0.0029898706826055
12.410226946279804,0.0025510867788919
12.438954323470266,0.0024817265270749
12.467681700660728,0.0026693797059171
12.496409077851192,0.0026186672868052
12.525136455041654,0.0027456853573473
12.553863832232116,0.0024390655691087
12.58259120942258,0.002647612752084
12.611318586613042,0.002709488082648
12.640045963803503,0.0027002387421318
12.668773340993967,0.0027597792831887
12.697500718184427,0.0026730281358223
12.726228095374893,0.0026215079362134
12.754955472565356,0.0027366909172802
12.783682849755817,0.0025750955635693
12.81241022694628,0.0027311265752451
12.841137604136742,0.0029059426840303
12.869864981327204,0.0027919070109243
12.898592358517666,0.002805539786405
12.92731973570813,0.0028019656302973
12.956047112898592,0.0029168590674967
12.984774490089054,0.0028795542309363
13.013501867279516,0.0029240356385049
13.04222924446998,0.0029634469376108
13.07095662166044,0.0028460095362419
13.099683998850905,0.0028394147782905
13.128411376041369,0.002987343221071
13.157138753231829,0.0033454891231278
13.185866130422292,0.0020760702951593
13.214593507612754,0.0052677962583382
13.243320884803216,0.0090004504167262
13.272048261993678,0.0080126555564263
13.300775639184142,0.008904577895986
13.329503016374604,0.0091069002451832
13.358230393565066,0.0092526299229843
13.38695777075553,0.009336823995251
13.415685147945991,0.0088809685739517
13.444412525136451,0.0076221502688883
13.473139902326915,0.0055607495622931
13.50186727951738,0.0041535463225696
13.53059465670784,0.0039397468132268
13.559322033898304,0.0040043318265414
13.588049411088766,0.0038686959132102
13.616776788279228,0.0036255125785858
13.645504165469692,0.0036656870335092
13.674231542660154,0.0038505118528527
13.702958919850616,0.0035536057646457
13.73168629704108,0.0034424009399388
13.76041367423154,0.00332631695074
13.789141051422003,0.0032549705558395
13.817868428612467,0.0031440784392714
13.846595805802927,0.0033976646402095
13.875323182993393,0.0028560836799154
13.904050560183856,0.0028695033485345
13.932777937374317,0.0030086578512571
13.96150531456478,0.0029412978021885
13.990232691755242,0.0028512887595641
14.018960068945704,0.0029003981380906
14.047687446136166,0.0028220249335427
14.07641482332663,0.0026322558254982
14.105142200517092,0.0028390010673525
14.133869577707554,0.0027690246593745
14.162596954898016,0.0025448141943793
14.19132433208848,0.0029120297313028
14.22005170927894,0.0030478355076415
14.248779086469405,0.0028827718627083
14.277506463659869,0.0028876687127324
14.306233840850329,0.0028587459183272
14.334961218040792,0.0028927804137992
14.363688595231254,0.0030055862643865
14.392415972421716,0.0028152540762306
14.42114334961218,0.0029268800191195
14.449870726802642,0.0028662037265574
14.478598103993104,0.0027616989161421
14.507325481183567,0.0027947624825702
14.53605285837403,0.0029105670707643
14.564780235564491,0.0028888539278931
14.593507612754957,0.0028964236087871
14.622234989945415,0.0034731054414334
14.65096236713588,0.0028122932624947
14.679689744326344,0.0029789029731618
14.708417121516804,0.0033946571444748
14.737144498707266,0.0032551604760203
14.76587187589773,0.0032831912828341
14.794599253088192,0.0033893271414553
14.823326630278654,0.0033300588020853
14.852054007469118,0.0033681197877955
14.88078138465958,0.0033575851993332
14.90950876185004,0.0031254454382893
14.938236139040503,0.0030131654371271
14.966963516230969,0.003032418368693
14.995690893421427,0.00278256662091
15.024418270611893,0.0028940618908637
15.053145647802356,0.0029709016520493
15.081873024992817,0.0027258265099444
15.11060040218328,0.0027238423145758
15.139327779373742,0.0028016618606143
15.168055156564204,0.0026731463040541
15.196782533754668,0.002726610128061
15.22550991094513,0.0027844304206564
15.254237288135592,0.0026643449465994
15.282964665326055,0.0025805385353658
15.311692042516515,0.0030453004167125
15.34041941970698,0.0028846621211571
15.369146796897445,0.0028657626983159
15.397874174087905,0.003044509847472
15.426601551278369,0.0030653062512741
15.45532892846883,0.0029566053732634
15.484056305659292,0.0031083046334725
15.512783682849754,0.0030826942123064
15.541511060040218,0.002988949923138
15.57023843723068,0.0029826010580921
15.598965814421142,0.0029579515177786
15.627693191611606,0.0029425789494892
15.656420568802067,0.0030056506552098
15.68514794599253,0.003099323669657
15.713875323182991,0.0030394528918341
15.742602700373457,0.0031779183224903
15.771330077563915,0.0031803325066969
15.80005745475438,0.0031531392160156
15.828784831944844,0.0031569706011016
15.857512209135304,0.0030717212020608
15.886239586325768,0.0029906949718513
15.91496696351623,0.0029268545670193
15.943694340706692,0.0034750959132896
15.972421717897156,0.0028746629638485
16.001149095087616,0.0024502414708658
16.02987647227808,0.0029823155470581
16.058603849468543,0.0028747731308747
16.087331226659003,0.0029247782617084
16.116058603849467,0.0028310479942098
16.14478598103993,0.0028861540298298
16.17351335823039,0.0028891562112704
16.202240735420855,0.0029101498806745
16.23096811261132,0.00296053171904
16.25969548980178,0.0029119557475148
16.288422866992242,0.0030588745630275
16.317150244182706,0.0031516036454457
16.345877621373166,0.0032995976853432
16.37460499856363,0.0032568437846799
16.403332375754093,0.0031219566547414
16.432059752944554,0.003272439034978
16.460787130135017,0.0032437198533299
16.48951450732548,0.002921127923516
16.51824188451594,0.0028318882286686
16.546969261706405,0.0027580757738629
16.57569663889687,0.0026992095753125
16.60442401608733,0.002685766523738
16.633151393277792,0.0027957048304317
16.661878770468256,0.0028490191716628
16.690606147658716,0.0028064140264739
16.71933352484918,0.0029331871321008
16.748060902039644,0.0029021920302638
16.776788279230104,0.0029063870717011
16.805515656420567,0.0029637253053784
16.83424303361103,0.0029943735809903
16.86297041080149,0.0030052759163312
16.891697787991955,0.0030370445742356
16.92042516518242,0.0030799752610091
16.94915254237288,0.0031513499581631
16.977879919563343,0.0030586429662196
17.006607296753806,0.0031307973460034
17.035334673944266,0.0031487645779772
17.06406205113473,0.0030681689675197
17.092789428325194,0.0030958156881822
17.121516805515654,0.0028374501828606
17.150244182706118,0.0028252527429461
17.17897155989658,0.0038586441088669
17.20769893708704,0.0050712422505711
17.236426314277505,0.0071088251071775
17.26515369146797,0.0079522439066764
17.29388106865843,0.0078882284635025
17.322608445848893,0.008219500593815
17.351335823039356,0.0074114698742941
17.380063200229817,0.0072054833848115
17.40879057742028,0.005908868634554217
17.437517954610744,0.0031643447685658
17.466245331801204,0.0038474872771366
17.494972708991668,0.0056049259087023
17.52370008618213,0.0041765429233725
17.55242746337259,0.0043569167187192
17.581154840563055,0.0044035911943601
17.60988221775352,0.0042112008342813
17.63860959494398,0.0031940776767705
17.667336972134443,0.0037976475798395
17.696064349324907,0.0037053421988459
17.724791726515367,0.0037044408070528
17.75351910370583,0.0033732607284656
17.782246480896294,0.0032604840591148
17.810973858086754,0.0033000340388999
17.839701235277218,0.003161276767375
17.86842861246768,0.003359163236201
17.897155989658142,0.0029889481950867
17.925883366848606,0.0030398897850571
17.95461074403907,0.0031864774158094
17.98333812122953,0.0031567545390851
18.012065498419993,0.0030992940475102
18.040792875610457,0.0031901662709248
18.069520252800917,0.0032865103064827
18.09824762999138,0.0032308538257669
18.126975007181844,0.0033280330106991
18.155702384372304,0.003263018860118
18.184429761562768,0.0030720065235979
18.213157138753232,0.0031887757898262
18.241884515943692,0.0030576772331232
18.270611893134156,0.0034822374575251
18.29933927032462,0.0033407051826925
18.32806664751508,0.0027141293232823
18.356794024705543,0.003057423669175
18.385521401896007,0.0030717140725543
18.414248779086467,0.003067067229238
18.44297615627693,0.0030292065524663
18.47170353346739,0.0029910956908672
18.500430910657855,0.0030423649471083
18.52915828784832,0.0030026158949053
18.557885665038786,0.0029446355559752
18.58661304222924,0.0032175579701052
18.615340419419702,0.0030869014496997
18.64406779661017,0.0029948680855037
18.67279517380063,0.003227164526616
18.701522550991093,0.0031080327017891
18.730249928181557,0.0032631419351122
18.758977305372017,0.0030109627146818
18.78770468256248,0.0030459253043377
18.816432059752945,0.0031369525361748
18.845159436943405,0.003040581963952
18.87388681413387,0.0030205350062346
18.902614191324332,0.0031149878193592
18.931341568514792,0.0030538832623256
18.960068945705256,0.0030121699640401
18.98879632289572,0.0030567723339415
19.01752370008618,0.0030152384027693
19.046251077276644,0.002841809864033
19.074978454467107,0.00299593225349
19.103705831657567,0.0029010594938485
19.13243320884803,0.002892783918548
19.161160586038495,0.0026207276895312
19.189887963228955,0.0025497932076123
19.21861534041942,0.0029617389008481
19.24734271760988,0.0028890216368894
19.276070094800343,0.0029151004547674
19.30479747199081,0.0030137930550603
19.33352484918127,0.0029868949523818
19.36225222637173,0.0030067124259987
19.390979603562194,0.0030407341330833
19.419706980752657,0.0029640280181439
19.44843435794312,0.0029777243165595
19.47716173513358,0.003037093486066
19.505889112324045,0.0032521312344915
19.534616489514505,0.0030229291581173
19.56334386670497,0.0031696401844228
19.592071243895433,0.0031311821499991
19.620798621085893,0.0030133790880429
19.649525998276356,0.0030897868902466
19.67825337546682,0.0030395416132252
19.70698075265728,0.0029653725005579
19.735708129847744,0.0031388664585149
19.764435507038208,0.0028419651637013
19.793162884228668,0.0029277734202449
19.82189026141913,0.0028598832167251
19.850617638609595,0.0031780396382586
19.879345015800055,0.0031359546470451
19.90807239299052,0.002812593592549
19.936799770180983,0.0029904383089861
19.965527147371443,0.0030107455146538
19.994254524561907,0.0030793208392009
20.02298190175237,0.0030029686836109
20.05170927894283,0.0029656632207103
20.080436656133298,0.002991227160874
20.10916403332376,0.0030171450937398
20.137891410514214,0.0029361047232481
20.16661878770468,0.0029552976657459
20.195346164895145,0.0029047105927388
20.224073542085605,0.0033242867590911
20.25280091927607,0.0026510747891708
20.281528296466533,0.0028574833853939
20.310255673656993,0.0028521976360911
20.338983050847457,0.0028871167872027
20.36771042803792,0.0028991658475263
20.39643780522838,0.0028641289632687
20.425165182418844,0.0029195747358209
20.453892559609308,0.0029555635589051
20.482619936799768,0.0028902344372795
20.511347313990232,0.0029073855295269
20.540074691180696,0.0029186292895762
20.568802068371156,0.0029267171403364
20.59752944556162,0.0029593206972134
20.62625682275208,0.0029453133019237
20.654984199942543,0.0029770010681989
20.683711577133007,0.0030281934839746
20.712438954323467,0.0027584524139888
20.74116633151393,0.0028326804608202
20.76989370870439,0.0029039637036886
20.798621085894855,0.0027583002118032
20.82734846308532,0.0027514435516498
20.856075840275786,0.0029498773756278
20.88480321746624,0.0028797917293961
20.913530594656702,0.0030058900569491
20.94225797184717,0.0030515001340953
20.97098534903763,0.0030782081848025
20.999712726228093,0.0030313290014643
21.028440103418557,0.003041859446194
21.057167480609017,0.0031248494556128
21.08589485779948,0.0030471823706378
21.114622234989945,0.0026985332081123
21.143349612180405,0.0027670377432179
21.17207698937087,0.0027754785275339
21.200804366561332,0.0037974691738154
21.229531743751792,0.0058065023758298
21.258259120942256,0.0063022781093105
21.28698649813272,0.0070916518956053
21.31571387532318,0.0108656017031594
21.344441252513644,0.0123334437928468
21.373168629704107,0.0130723168824113
21.401896006894567,0.0141157719963731
21.43062338408503,0.0130677313117739
21.459350761275495,0.0124640391730831
21.488078138465955,0.0146556792048872
21.51680551565642,0.0103685037385045
21.54553289284688,0.0106854132757774
21.574260270037342,0.0093152857083916
21.60298764722781,0.0059168301464172
21.63171502441827,0.0045135996777328
21.66044240160873,0.0042709539339468
21.689169778799194,0.0042750717311539
21.717897155989657,0.0042957066701547
21.74662453318012,0.0043951246283444
21.77535191037058,0.0042009404475723
21.804079287561045,0.0039675122591385
21.832806664751505,0.0044284651036986
21.86153404194197,0.0042181350155476
21.890261419132433,0.0035485597494644
21.918988796322893,0.0036851275973954
21.947716173513356,0.0035104182833581
21.97644355070382,0.0035777096899884
22.00517092789428,0.0033368253593465
22.033898305084744,0.0033103358972169
22.062625682275208,0.0031858997694204
22.091353059465668,0.0032239352067902
22.12008043665613,0.0033356549401929
22.148807813846595,0.0033483194376391
22.177535191037055,0.0032614620780009
22.20626256822752,0.0032752592062391
22.234989945417983,0.003316867931024
22.263717322608443,0.0033259215902242
22.292444699798907,0.0033966571232523
22.32117207698937,0.0033696833738633
22.34989945417983,0.0033687083723238
22.378626831370298,0.0034063093583277
22.40735420856076,0.0033691311610018
22.436081585751214,0.0032567050870677
22.46480896294168,0.0033074221712296
22.493536340132145,0.0032549433065843
22.522263717322605,0.0032065208734207
22.55099109451307,0.0032168804356179
22.579718471703533,0.0032471440337348
22.608445848893993,0.0031992095102805
22.637173226084457,0.003157986988644
22.66590060327492,0.0031972331695049
22.69462798046538,0.0031582741456351
22.723355357655844,0.0031807254485749
22.752082734846308,0.0031343611220566
22.780810112036768,0.003059955589132
22.809537489227232,0.0030140093597487
22.838264866417695,0.0028168943870744
22.866992243608156,0.0031842169374699
22.89571962079862,0.0030760761790429
22.924446997989083,0.002969120240416
22.953174375179543,0.0030775718070459
22.981901752370007,0.0031857205336033
23.01062912956047,0.0031146628773443
23.03935650675093,0.003166924235749
23.06808388394139,0.0032972057864656
23.096811261131855,0.0031528535580117
23.12553863832232,0.0033727964329599
23.154266015512786,0.0032312100968102
23.18299339270325,0.0035213339337947
23.211720769893702,0.0035300156435434
23.24044814708417,0.003307356656735
23.269175524274633,0.0035084912707769
23.297902901465093,0.0034220107723344
23.326630278655557,0.003527094083637
23.35535765584602,0.0034043229389061
23.38408503303648,0.0029810355214107
23.412812410226945,0.003149147993749
23.44153978741741,0.003520029275147
23.47026716460787,0.0022872613886632
23.498994541798332,0.0030043234293217
23.527721918988796,0.0029614005271215
23.556449296179256,0.0026628903566526
23.58517667336972,0.0028361995168796
23.613904050560183,0.0028638079892609
23.642631427750644,0.003195753700288
23.671358804941107,0.0033301947692729
23.70008618213157,0.0024008346404931
23.72881355932203,0.0029935033607283
23.757540936512495,0.0030590331153372
23.78626831370296,0.0030923343401043
23.81499569089342,0.0030677311870273
23.84372306808388,0.0030943293806804
23.872450445274342,0.0030200591908411
23.90117782246481,0.0030313369639808
23.92990519965527,0.0028518023566705
23.958632576845737,0.0028626778984101
23.987359954036194,0.0027949206498565
24.016087331226657,0.0030905045677496
24.04481470841712,0.0030270068047666
24.07354208560758,0.0027678343280759
24.102269462798045,0.00273000148086
24.13099683998851,0.0029527014422247
24.15972421717897,0.00315333015919
24.188451594369432,0.0030623376665558
24.217178971559896,0.0030410501849841
24.245906348750356,0.0028791656534431
24.27463372594082,0.0029071626383666
24.303361103131284,0.003101284373619
24.332088480321744,0.0028025382416329
24.360815857512208,0.0031328836236855
24.38954323470267,0.0031550307425857
24.41827061189313,0.0031905457139809
24.446997989083595,0.0032244248856222
24.47572536627406,0.0031692560312494
24.50445274346452,0.0032778318866281
24.533180120654983,0.0034531994444613
24.561907497845446,0.0034948560111749
24.590634875035907,0.0034558900976544
24.61936225222637,0.0033773627522245
24.64808962941683,0.0033501884884854
24.676817006607298,0.0033025568567183
24.70554438379776,0.0031069679152219
24.73427176098822,0.0029961389247125
24.76299913817868,0.0029436616610787
24.791726515369145,0.002813154617686
24.82045389255961,0.0029051745303552
24.84918126975007,0.0028973915399595
24.877908646940533,0.0029118748588574
24.906636024130997,0.0029435802313693
24.935363401321457,0.0029260021625422
24.96409077851192,0.0029017840433482
24.992818155702384,0.0028689764919823
25.021545532892844,0.00289572110085
25.050272910083308,0.0029531073781056
25.07900028727377,0.0029511696662035
25.10772766446423,0.0029207482728886
25.136455041654695,0.0028634975631106
25.16518241884516,0.0028688536803006
25.19390979603562,0.0028950079930387
25.222637173226083,0.002900576186485
25.251364550416547,0.0030624977631835
25.280091927607007,0.0030215960445726
25.30881930479747,0.0027771857070202
25.337546681987934,0.0032702775501612
25.36627405917839,0.004823607222496
25.395001436368855,0.009488445630973367
25.42372881355932,0.0146253340386644
25.452456190749785,0.0155507756791014
25.48118356794025,0.015883493588397
25.50991094513071,0.0166196161390234
25.53863832232117,0.0166685576855272
25.567365699511633,0.0165223774419028
25.596093076702097,0.0155144132963243
25.624820453892557,0.0128052698644736
25.65354783108302,0.0090474233211023
25.682275208273484,0.0071742451684195
25.711002585463945,0.0071850745339818
25.73972996265441,0.0057370508362055
25.768457339844872,0.004203304921378
25.797184717035332,0.0040774569015399
25.825912094225796,0.0040970647809762
25.85463947141626,0.0039313896557977
25.88336684860672,0.0041684469139747
25.912094225797183,0.0034988246583334
25.940821602987647,0.0035319932331523
25.969548980178107,0.0034836407177571
25.99827635736857,0.0032898496135964
26.027003734559035,0.0034840006540415
26.055731111749495,0.0030357311039214
26.08445848893996,0.0033247169769175
26.113185866130426,0.0033822899902986
26.14191324332088,0.0031452767682036
26.170640620511342,0.0031730354084424
26.19936799770181,0.0034644637426432
26.22809537489227,0.003330713786871
26.256822752082737,0.0035388463280386
26.285550129273197,0.0032225193187473
26.314277506463657,0.0033989874416336
26.34300488365412,0.0037638484172674
26.371732260844585,0.003399588703927
26.400459638035045,0.0033609657176152
26.42918701522551,0.0036017738362012
26.457914392415972,0.0033260761598376
26.486641769606432,0.0032088809498006
26.515369146796896,0.0032833697162848
26.544096523987356,0.0033583653830286
26.57282390117782,0.0033793973240117
26.601551278368284,0.0033720485848527
26.630278655558744,0.0033786611532045
26.659006032749208,0.0033445586851037
26.68773340993967,0.0034464458515651
26.71646078713013,0.0035703839097785
26.745188164320595,0.0029439155545509
26.77391554151106,0.0031559246617044
26.80264291870152,0.0030096315366765
26.831370295891983,0.0029766275112195
26.860097673082446,0.0030687294711236
26.888825050272903,0.0027974405575523
26.91755242746337,0.0036902263788181
26.94627980465383,0.0034026952002036
26.975007181844298,0.0029990238859194
27.00373455903476,0.0036164983591515
27.03246193622522,0.0034023805136522
27.06118931341568,0.00337009219921
27.089916690606145,0.0033797956278441
27.11864406779661,0.0032306308498013
27.14737144498707,0.0032928767302127
27.176098822177533,0.0032395417532733
27.204826199367997,0.0030878426068742
27.233553576558457,0.0032749214967584
27.26228095374892,0.0031937337416547
27.291008330939384,0.0029844525631849
27.319735708129844,0.0034132516981941
27.348463085320308,0.0033464641278682
27.37719046251077,0.0032099984052887
27.40591783970123,0.0032460137584374
27.434645216891695,0.0031913550747864
27.46337259408216,0.0030591754284086
27.49209997127262,0.0031386116490691
27.520827348463083,0.0032187191492751
27.549554725653547,0.0032508624878829
27.578282102844007,0.003187192672861
27.60700948003447,0.003114832667434
27.635736857224934,0.0031550533765898
27.66446423441539,0.0032314143452012
27.693191611605855,0.0032924543875548
27.72191898879632,0.003280315128047
27.750646365986785,0.0032997823926941
27.77937374317725,0.00329673774849
27.80810112036771,0.0032736772107712
27.83682849755817,0.0033145588689556
27.865555874748633,0.0033947926917104
27.894283251939097,0.0033478999650423
27.923010629129557,0.0032029817876504
27.95173800632002,0.0031537380892448
27.980465383510484,0.0031592382092251
28.009192760700945,0.0030506513848307
28.03792013789141,0.0029663741410005
28.066647515081872,0.0029353931381226
28.095374892272332,0.0032333063633284
28.124102269462796,0.0032177456149351
28.15282964665326,0.0032130396893618
28.18155702384372,0.0030998863733939
28.210284401034183,0.0031516903964042
28.239011778224647,0.0032879883500553
28.267739155415107,0.0031558838721612
28.29646653260557,0.0031825160131865
28.325193909796035,0.0032453994407528
28.353921286986495,0.0032003904043425
28.38264866417696,0.003170794069944
28.411376041367426,0.0033860739942887
28.44010341855788,0.0033194636261666
28.468830795748342,0.0032012292381497
28.49755817293881,0.0033597064391421
28.52628555012927,0.0033641271792585
28.555012927319737,0.0031715046214734
28.583740304510197,0.0032369326366654
28.612467681700657,0.0032974067826251
28.64119505889112,0.0032798132200782
28.669922436081585,0.0033456511864817
28.698649813272045,0.0032617070976661
28.72737719046251,0.0030255351289472
28.756104567652972,0.0029381816209551
28.784831944843432,0.003102434206896
28.813559322033896,0.0028775435143161
28.84228669922436,0.0030310740197435
28.87101407641482,0.0029247478128516
28.899741453605284,0.0029233752303658
28.928468830795747,0.002942456582556
28.957196207986208,0.0029824334003867
28.98592358517667,0.0032000194716814
29.014650962367135,0.0030957241044464
29.043378339557595,0.002929763683404
29.07210571674806,0.0033889306852776
29.10083309393852,0.0032979006338704
29.129560471128983,0.0032466859238256
29.158287848319446,0.0033662164679925
29.18701522550991,0.0032583266020443
29.21574260270037,0.0030737260496886
29.24446997989083,0.0032568453344936
29.273197357081298,0.0058024784779183
29.30192473427176,0.0066474429576782
29.33065211146222,0.0071820697725834
29.359379488652685,0.0121220470486115
29.388106865843145,0.0149373718112866
29.41683424303361,0.0153505986227775
29.445561620224073,0.0151178234371648
29.474288997414533,0.0151662130401621
29.503016374604996,0.0147836414505771
29.53174375179546,0.0138534236320697
29.56047112898592,0.0141052024782298
29.589198506176384,0.008849130183976749
29.617925883366848,0.003224720436973
29.646653260557308,0.0032785588771464
29.67538063774777,0.0038492342288645
29.704108014938235,0.0037512520709318
29.732835392128695,0.0038381816553428
29.76156276931916,0.003556852576031
29.790290146509623,0.0034337325462045
29.819017523700083,0.0034292855276309
29.847744900890547,0.0034944180361666
29.87647227808101,0.0034879905681399
29.90519965527147,0.003652953780566
29.933927032461938,0.0033066013359382
29.9626544096524,0.0031788499957385
29.991381786842854,0.0032055378220312
30.02010916403332,0.0030436572985554
30.048836541223785,0.003254863752428
30.07756391841425,0.0028803136914775
30.10629129560471,0.0029830327059166
30.135018672795173,0.0030153328059019
30.163746049985633,0.0028930659446861
30.192473427176097,0.0029080937493947
30.22120080436656,0.0031062375730837
30.24992818155702,0.0029722513109473
30.278655558747484,0.0028764251971252
30.307382935937948,0.0030537963684279
30.336110313128408,0.0030466462274091
30.364837690318872,0.0032551850516912
30.393565067509336,0.0031174496686652
30.422292444699796,0.0030702009206555
30.45101982189026,0.0033843354042025
30.479747199080723,0.0030801007136561
30.508474576271183,0.0030814363780188
30.537201953461647,0.0032476672094278
30.56592933065211,0.003127716938147
30.59465670784257,0.0029860368295679
30.623384085033035,0.003378095233702
30.6521114622235,0.0031794746497011
30.68083883941396,0.0029714377474196
30.709566216604426,0.0034610192752504
30.73829359379489,0.0032994164628574
30.767020970985342,0.0033135132469577
30.79574834817581,0.0033193417769116
30.824475725366273,0.0030894680432331
30.853203102556733,0.003133137669483
30.881930479747197,0.003205120858445
30.91065785693766,0.0031415749416371
30.93938523412812,0.0030704045513988
30.968112611318585,0.0029961567859255
30.99683998850905,0.0029138852866821
31.02556736569951,0.0029454874147325
31.054294742889972,0.0030289188587985
31.083022120080436,0.0029676696181177
31.111749497270896,0.0030451026129864
31.14047687446136,0.003045449708421
31.169204251651824,0.0030609639318922
31.197931628842284,0.0031038789384033
31.226659006032747,0.0030632746625931
31.25538638322321,0.0030780731774921
31.28411376041367,0.0031567364243483
31.312841137604135,0.0031599318174555
31.3415685147946,0.0030853680241924
31.37029589198506,0.0030584743229514
31.39902326917552,0.0029774272046034
31.427750646365983,0.0031535468783525
31.456478023556446,0.003490655426601
31.48520540074691,0.0025885497365776
31.513932777937377,0.0029826527093635
31.54266015512783,0.0030087733398772
31.571387532318298,0.0027901923345594
31.60011490950876,0.0028359126897753
31.62884228669922,0.0029436986228997
31.657569663889685,0.0028041661714773
31.68629704108015,0.0028510665306581
31.71502441827061,0.0029381312028489
31.743751795461073,0.0028829071969444
31.772479172651536,0.0028621423072082
31.801206549841996,0.0029587665735283
31.82993392703246,0.0030309856382261
31.858661304222924,0.0030045640550678
31.887388681413384,0.0030908672097104
31.916116058603848,0.0030942028900749
31.94484343579431,0.0031660797043849
31.97357081298477,0.0031233114907848
32.00229819017523,0.0030927789354414
32.031025567365695,0.0032652998405718
32.05975294455616,0.0032855892915003
32.08848032174662,0.0033642412074598
32.11720769893709,0.0034244551651865
32.14593507612755,0.0033339291074665
32.17466245331801,0.003245177044018
32.20338983050847,0.0032010102616503
32.232117207698934,0.0031621685868734
32.2608445848894,0.0032007640994727
32.28957196207986,0.003203374489003
32.318299339270325,0.0031551106536198
32.34702671646078,0.0032112737391904
32.375754093651246,0.003193130895996
32.40448147084171,0.0032640093954625
32.43320884803217,0.0033279780208332
32.46193622522264,0.0033076521423458
32.4906636024131,0.0033199495505539
32.51939097960356,0.0033666717610034
32.54811835679402,0.0033896731347414
32.576845733984484,0.0033589133273016
32.60557311117495,0.003345815142511
32.63430048836541,0.0034130923069797
32.663027865555875,0.0031992060152167
32.69175524274633,0.0031883938733525
32.720482619936796,0.0032470064834226
32.74920999712726,0.003181869091337
32.77793737431772,0.0030279566035464
32.80666475150819,0.0030016863936554
32.83539212869865,0.0029763228291209
32.86411950588911,0.0032043098031474
32.89284688307957,0.0025542191169781
32.921574260270035,0.0028096905215004
32.9503016374605,0.0027917500324061
32.97902901465096,0.0027609249857953
33.007756391841426,0.0028750224743942
33.03648376903188,0.0027703147858816
33.065211146222346,0.0030385271406579
33.09393852341281,0.00305189470962
33.12266590060327,0.0029632588398137
33.15139327779374,0.0031353390899381
33.1801206549842,0.0031650855450802
33.20884803217466,0.0030897212365667
33.23757540936512,0.0031354978254209
33.266302786555585,0.0032648046004346
33.29503016374605,0.0030692411588451
33.32375754093651,0.002946394689423
33.352484918126976,0.0041286574241754
33.38121229531743,0.0049235506472445
33.409939672507896,0.0060893051006331
33.43866704969836,0.0066617498206222
33.46739442688882,0.0064586029611593
33.49612180407929,0.0063656731311857
33.52484918126975,0.0064555113920281
33.55357655846021,0.006519412782909
33.58230393565067,0.0059287755710619
33.611031312841135,0.0048185052324299
33.6397586900316,0.0038776224575619
33.66848606722206,0.0032710502052427
33.697213444412526,0.0033457808301018
33.72594082160298,0.0034630468080235
33.754668198793446,0.0034736611902707
33.78339557598391,0.0035392355415616
33.812122953174374,0.0036831669054335
33.84085033036484,0.0036916864141076
33.8695777075553,0.0036127778661213
33.89830508474576,0.0036617305113324
33.92703246193622,0.003650146025108
33.955759839126685,0.0036671238434895
33.98448721631715,0.0035109898588096
34.01321459350761,0.0031011827304764
34.041941970698076,0.003780594599404
34.07066934788853,0.0035819443937964
34.099396725078996,0.003708147460985
34.12812410226946,0.0042598972911173
34.156851479459924,0.0043657626739958
34.18557885665039,0.0038774099171686
34.21430623384085,0.0039679347817825
34.24303361103131,0.0037157589660502
34.27176098822177,0.0040287279312558
34.300488365412235,0.0041318017528209
34.3292157426027,0.0027720544395119
34.35794311979316,0.0030780630829785
34.386670496983626,0.003036487442338
34.41539787417408,0.0030257745967639
34.44412525136455,0.0028816847575351
34.47285262855501,0.0027873459065366
34.501580005745474,0.0028550009158546
34.53030738293594,0.0029270770401997
34.5590347601264,0.0028982751528658
34.58776213731686,0.0028492594041991
34.61648951450732,0.0029293708600063
34.645216891697785,0.0029291141959925
34.67394426888825,0.0030505808708151
34.70267164607871,0.0034358253887744
34.73139902326918,0.0038436312223186
34.76012640045963,0.0039878640538453
34.7888537776501,0.0040616904329062
34.81758115484056,0.0041196418637889
34.846308532031024,0.0040776119395172
34.87503590922149,0.0041901637433387
34.90376328641195,0.0039647622192843
34.93249066360241,0.0036105057232872
34.96121804079287,0.0038132805042514
34.989945417983336,0.0025238262374765
35.0186727951738,0.0028363464681119
35.04740017236426,0.0030031005995244
35.07612754955473,0.0028088370674313
35.10485492674518,0.0027540765084582
35.13358230393565,0.0028316146965253
35.16230968112611,0.0028092819413337
35.191037058316574,0.0028492262524561
35.21976443550704,0.0028380115377634
35.2484918126975,0.0029142863980755
35.27721918988796,0.0029944602048446
35.30594656707842,0.0029458060482925
35.334673944268886,0.0028877276499409
35.36340132145935,0.0028447782654612
35.39212869864981,0.0029833604485494
35.42085607584027,0.002981563129036
35.44958345303073,0.0029521175126268
35.4783108302212,0.0030433299130575
35.50703820741166,0.0030704322481718
35.535765584602125,0.0027143502532148
35.56449296179259,0.0028880228537201
35.593220338983045,0.0030988841674814
35.62194771617351,0.0031795635976898
35.65067509336397,0.0032143547250564
35.679402470554436,0.0033269731491049
35.7081298477449,0.0033713921188762
35.73685722493536,0.0034636467506695
35.76558460212582,0.0037636047243798
35.794311979316284,0.003266723882373
35.82303935650675,0.0032934537900721
35.85176673369721,0.00344259870167
35.880494110887675,0.0033105337842095
35.90922148807814,0.0033155270679449
35.937948865268595,0.0033743484167671
35.96667624245906,0.0032430564480385
35.99540361964952,0.00307340162092
36.024130996839986,0.0032737083939308
36.05285837403045,0.003185663963238
36.08158575122091,0.0026940876838548
36.11031312841137,0.0031629970775384
36.139040505601834,0.0031345534702828
36.1677678827923,0.0031256662323733
36.19649525998276,0.0031169497627739
36.225222637173225,0.0030036914475125
36.25395001436369,0.0031008854641427
36.282677391554145,0.0031889495083252
36.31140476874461,0.0027798535421766
36.34013214593507,0.0033135302472516
36.368859523125536,0.0031674164194308
36.397586900316,0.0034686732699734
36.426314277506464,0.0040189345873795
36.45504165469692,0.0040851167603751
36.483769031887384,0.0040629740027031
36.51249640907785,0.0041902578589509
36.54122378626831,0.0043714672375745
36.569951163458775,0.004162739034202
36.59867854064924,0.0037172698721775
36.627405917839695,0.0029014259323607
36.65613329503016,0.0032114999806204
36.68486067222062,0.0030539015149662
36.713588049411086,0.0028434246030923
36.74231542660155,0.0030076065520069
36.771042803792014,0.002987073101794
36.79977018098247,0.0030125426639114
36.828497558172934,0.0031696483547122
36.8572249353634,0.0032095889691583
36.88595231255386,0.0032006610209653
36.914679689744325,0.0033499526686783
36.94340706693479,0.0035462566099111
36.972134444125246,0.0034339969779208
37.00086182131571,0.0033851201910434
37.02958919850617,0.0033120763095915
37.05831657569664,0.0031774634486755
37.0870439528871,0.0031522256365983
37.11577133007757,0.0031535993668037
37.14449870726802,0.0030894868153254
37.17322608445848,0.0030113923877147
37.20195346164895,0.0029706760920248
37.23068083883941,0.00298524505715
37.259408216029875,0.0028925651188571
37.28813559322034,0.0029520889904325
37.3168629704108,0.003079276416463
37.34559034760126,0.0027081063230439
37.37431772479172,0.0028495255436839
37.40304510198219,0.0043792065335647
37.43177247917265,0.0052501846561949
37.460499856363114,0.0067468898864967
37.48922723355357,0.00783316178108
37.517954610744034,0.0095972355387786
37.5466819879345,0.0102402759981675
37.57540936512496,0.0094160079532568
37.604136742315426,0.010260690877674
37.63286411950589,0.0122668744845578
37.661591496696346,0.0066675509119397
37.69031887388681,0.0076676390787649
37.71904625107727,0.0075117142747063
37.74777362826774,0.0052704308596911
37.7765010054582,0.0050020078556947
37.805228382648664,0.0047944286808774
37.83395575983912,0.0039634851595842
37.862683137029585,0.0048237428378099
37.89141051422005,0.0022837179543391
37.92013789141051,0.0034184718953132
37.948865268600976,0.003117964453133
37.97759264579144,0.0031608092957062
38.006320022981896,0.0029935938728619
38.03504740017236,0.0030731345873665
38.06377477736282,0.0029529423317114
38.09250215455329,0.0030273595291206
38.12122953174375,0.0031038406270945
38.149956908934215,0.0030028865940835
38.17868428612467,0.0029508389287748
38.207411663315135,0.003109553868017
38.2361390405056,0.0030710271442811
38.26486641769606,0.0031848577210194
38.293593794886526,0.0030326646930387
38.32232117207699,0.0029890585807964
38.351048549267446,0.0027620217676168
38.37977592645791,0.0029929916632799
38.408503303648374,0.0029071684915136
38.43723068083884,0.0030936843368434
38.4659580580293,0.0031311053203969
38.494685435219765,0.0031001508591938
38.52341281241022,0.0031637885347103
38.552140189600685,0.0031742615271325
38.58086756679115,0.0031410466176627
38.60959494398161,0.0031435855783679
38.63832232117208,0.0031422000047825
38.66704969836254,0.0029736600924446
38.69577707555299,0.0029223721038849
38.72450445274346,0.0029227665169063
38.75323182993392,0.0025335099664893
38.78195920712439,0.0028030709504355
38.81068658431485,0.0028578917975051
38.839413961505315,0.0025981943968636
38.86814133869577,0.0028342398450998
38.896868715886235,0.0030014831722756
38.9255960930767,0.0028615372800493
38.95432347026716,0.0029812750328341
38.983050847457626,0.0029880365089884
39.01177822464809,0.0028999787818096
39.04050560183855,0.0028832627953477
39.06923297902901,0.0029826647767227
39.097960356219474,0.0030056158631934
39.12668773340994,0.0030841177080768
39.1554151106004,0.0031543874012902
39.184142487790865,0.0030910597424954
39.21286986498132,0.002989833097823
39.241597242171785,0.0030907543885453
39.27032461936225,0.0032349739408898
39.29905199655271,0.0033967755417229
39.32777937374318,0.0032620857469531
39.35650675093364,0.0031965206383584
39.3852341281241,0.0032334988562325
39.41396150531456,0.0031970838006909
39.442688882505024,0.0032024832102887
39.47141625969549,0.0031949182647917
39.50014363688595,0.0031132864786655
39.528871014076415,0.002990307554819
39.55759839126687,0.0029113321544893
39.586325768457336,0.0029153838347741
39.6150531456478,0.0029582222298029
39.64378052283826,0.0029332872777301
39.67250790002873,0.002791641354968
39.70123527721919,0.002947805752631
39.72996265440965,0.0028952230076122
39.75869003160011,0.0030371531846752
39.787417408790574,0.0031151216709951
39.81614478598104,0.0030791736536834
39.8448721631715,0.0031575749663333
39.873599540361965,0.0031241208059028
39.90232691755242,0.0031442343650752
39.931054294742886,0.002983041670876
39.95978167193335,0.0032816777940356
39.98850904912381,0.0032920278179031
40.01723642631428,0.0030774835957786
40.04596380350474,0.0030567766646851
40.0746911806952,0.002850818803994
40.10341855788566,0.0030054671907748
40.132145935076124,0.0029110035204512
40.16087331226659,0.0029508306025977
40.18960068945705,0.0028434374493463
40.21832806664752,0.0027908738745078
40.24705544383797,0.0026266505392075
40.27578282102843,0.0030292356325411
40.3045101982189,0.0030750985873969
40.33323757540936,0.0029476085346795
40.36196495259983,0.0029855334679919
40.39069232979029,0.0030084704943477
40.41941970698075,0.0030142752421932
40.44814708417121,0.0030740647074357
40.476874461361675,0.0030122256447821
40.50560183855214,0.0029632533185321
40.5343292157426,0.0029806355966994
40.563056592933066,0.0028051522932422
40.59178397012352,0.0029372166068402
40.620511347313986,0.0031644317321684
40.64923872450445,0.0029131997708306
40.67796610169491,0.0029398191940261
40.70669347888538,0.0030786364156782
40.73542085607584,0.0029265911222471
40.7641482332663,0.0029979836058638
40.79287561045676,0.0030540551621297
40.821602987647225,0.0030050154488286
40.85033036483769,0.0029188025315969
40.87905774202815,0.0029625211165874
40.907785119218616,0.0029853083950652
40.93651249640907,0.0030805432666377
40.965239873599536,0.0030238582099676
40.99396725079,0.0028838873201784
41.022694627980464,0.0031108542601182
41.05142200517093,0.0030065725698162
41.08014938236139,0.002955546142054
41.10887675955185,0.0030533389116119
41.13760413674231,0.0030922714840395
41.166331513932775,0.0032195808977782
41.19505889112324,0.0031888517902517
41.2237862683137,0.0032476560729663
41.25251364550416,0.0033050233674172
41.28124102269462,0.0032153871904401
41.309968399885086,0.0033605392293567
41.33869577707555,0.0030030297952652
41.367423154266014,0.003069011670411
41.39615053145648,0.0030892803174803
41.424877908646934,0.0029694564285493
41.4536052858374,0.0029396039376917
41.48233266302786,0.0031669292137295
41.511060040218325,0.0029851634615218
41.53978741740879,0.0051047423058548
41.56851479459925,0.006732701230847915
41.59724217178971,0.008450637354292504
41.62596954898017,0.008563469603914686
41.65469692617064,0.0109465228528987
41.6834243033611,0.0104465195007054
41.71215168055157,0.0096996943788888
41.74087905774203,0.0102386908896435
41.76960643493248,0.0102359773198881
41.79833381212295,0.0076511717194462
41.82706118931341,0.0074422271370908
41.855788566503875,0.004447113206205951
41.88451594369434,0.004889737419878308
41.9132433208848,0.003521866445776
41.94197069807526,0.0029339294338113
41.97069807526572,0.0033421165769396
41.99942545245619,0.0032550171991192
42.02815282964665,0.0032559383583493
42.056880206837114,0.0031975725166725
42.08560758402758,0.0032365212131366
42.114334961218034,0.0032190821033899
42.1430623384085,0.0031245289455507
42.17178971559896,0.0031424076511011
42.200517092789426,0.0030588971242677
42.22924446997989,0.0032772582236292
42.25797184717035,0.0033413570574976
42.28669922436081,0.0033061260034277
42.31542660155127,0.0032969610184003
42.34415397874174,0.003321876550709
42.3728813559322,0.0033681092569749
42.401608733122664,0.0035179550888815
42.43033611031313,0.0038351133615622
42.459063487503585,0.0035425049070836
42.48779086469405,0.0033298998673437
42.51651824188451,0.0034808665845184
42.545245619074976,0.0035576979791719
42.57397299626544,0.0036038282784832
42.6027003734559,0.0034291308378208
42.63142775064636,0.003181847380117
42.66015512783682,0.0032027270669612
42.68888250502729,0.0033361510101215
42.71760988221775,0.0033163769942618
42.746337259408214,0.0032213749627515
42.77506463659868,0.0031732840209064
42.803792013789135,0.0030231181789406
42.8325193909796,0.0035217184146092
42.86124676817006,0.003214583109679
42.889974145360526,0.0028295487202049
42.91870152255099,0.0032988146150388
42.94742889974145,0.0033114236197879
42.97615627693191,0.0034654358645854
43.004883654122374,0.0030691914077155
43.03361103131284,0.0031721336560552
43.0623384085033,0.0033547881138774
43.091065785693765,0.0032526301594222
43.11979316288423,0.0034220551173443
43.148520540074685,0.0031257023282728
43.17724791726515,0.0033347694716023
43.20597529445561,0.0032982278414026
43.23470267164608,0.003196693179227
43.26343004883654,0.0032044148918164
43.292157426027,0.0032333770887063
43.32088480321746,0.0031894495533467
43.34961218040792,0.0030422599006167
43.37833955759839,0.0028879388087458
43.40706693478885,0.0028147355839738
43.435794311979315,0.0029128770058276
43.46452168916978,0.00317970436867
43.493249066360235,0.0030734024868395
43.5219764435507,0.0024232023152773
43.55070382074116,0.0037059696083294
43.579431197931626,0.0030386057963309
43.60815857512209,0.0029108780635232
43.636885952312554,0.0033042615614798
43.66561332950301,0.0032797052130394
43.694340706693474,0.0029750471082212
43.72306808388394,0.0032849833346973
43.7517954610744,0.0034067271229203
43.780522838264865,0.0032928528511508
43.80925021545533,0.0034265101552617
43.837977592645785,0.0034138698606355
43.86670496983625,0.0033272431479609
43.89543234702671,0.0033702912098788
43.924159724217176,0.0033276314165697
43.95288710140764,0.0033311720463236
43.981614478598104,0.0032630373895531
44.01034185578856,0.0032021922274784
44.039069232979024,0.0031686160484919
44.06779661016949,0.0022152397158292
44.09652398735995,0.0045867160184383
44.125251364550415,0.0029838240512202
44.15397874174088,0.0029737517671345
44.182706118931335,0.0030136853001646
44.2114334961218,0.0030297033787243
44.24016087331226,0.0031984933347896
44.26888825050273,0.0029988197730368
44.29761562769319,0.0030047588768984
44.326343004883654,0.0030290737010285
44.35507038207411,0.0030646575104868
44.383797759264574,0.0031642300437172
44.41252513645504,0.003091054106683
44.4412525136455,0.0031090335133165
44.469979890835965,0.0030808637978028
44.49870726802643,0.0030057275230418
44.527434645216886,0.0030184766672121
44.55616202240735,0.0031219125049638
44.58488939959781,0.0029835828359523
44.61361677678828,0.0030648060147106
44.64234415397874,0.0029117337313858
44.6710715311692,0.0029865481897935
44.69979890835966,0.0029406468708669
44.72852628555013,0.0031186600494294
44.75725366274059,0.0031036939620768
44.78598103993105,0.0030228344437739
44.81470841712152,0.0031159037873859
44.84343579431198,0.0031433783611736
44.87216317150243,0.0031321782828374
44.9008905486929,0.0031719497849465
44.92961792588336,0.0032598683025694
44.95834530307383,0.0031056471681071
44.98707268026429,0.0029323626876033
45.015800057454754,0.0034241673011206
45.04452743464521,0.00314127451063
45.073254811835675,0.0030879802251267
45.10198218902614,0.0030982588617974
45.1307095662166,0.0032117118161781
45.159436943407066,0.0030228169886808
45.18816432059753,0.0031585757853852
45.216891697787986,0.0031927452973748
45.24561907497845,0.003051699138408
45.27434645216891,0.0030395410592244
45.30307382935938,0.0030770937276706
45.33180120654984,0.0031461232148428
45.360528583740304,0.002998217287945
45.38925596093076,0.0029704201531993
45.417983338121225,0.0030682788638922
45.44671071531169,0.0030670403882725
45.47543809250215,0.0027603239469108
45.504165469692616,0.0035212780878255
45.53289284688308,0.0063736524438154
45.561620224073536,0.0075286290989639
45.590347601264,0.0082020051621443
45.619074978454464,0.0089377178361605
45.64780235564493,0.0083655019008611
45.67652973283539,0.008641049471422
45.705257110025855,0.0087221729752023
45.73398448721631,0.0086980768264385
45.762711864406775,0.0083584837275127
45.79143924159724,0.0030795964359849
45.8201666187877,0.0038104558813791
45.848893995978166,0.0038946484181353
45.87762137316863,0.0036597946332576
45.906348750359086,0.0035832740302696
45.93507612754955,0.0031585800433278
45.963803504740014,0.0034237198284394
45.99253088193048,0.003453690222314
46.02125825912094,0.0032355605264516
46.049985636311405,0.0032509962785889
46.07871301350186,0.0032052982108317
46.107440390692325,0.0030058022585664
46.13616776788279,0.0030716090944226
46.16489514507325,0.0034062435029112
46.19362252226371,0.002893381322793
46.22234989945418,0.003115268766864
46.25107727664464,0.0033135922695555
46.2798046538351,0.0031679689289899
46.30853203102557,0.0031364945635985
46.33725940821603,0.0035001756623591
46.36598678540649,0.003328572635311
46.394714162596955,0.0032183246255283
46.42344153978741,0.0032188484972185
46.452168916977875,0.0032406434626041
46.48089629416834,0.0031738924602041
46.5096236713588,0.0031000200076913
46.538351048549266,0.0030531057230232
46.56707842573973,0.0029745696826546
46.59580580293019,0.0029546623997994
46.62453318012065,0.0029370163693013
46.653260557311114,0.0029990195924595
46.68198793450158,0.0029325112693537
46.71071531169204,0.0027797198737805
46.739442688882505,0.0031656542044504
46.76817006607296,0.0030132919750361
46.796897443263425,0.0029492091226118
46.82562482045389,0.0030596108221426
46.85435219764435,0.0031016982963396
46.88307957483482,0.0029420591054459
46.91180695202528,0.0030406054692487
46.94053432921574,0.0032078587926146
46.9692617064062,0.0024352672033486
46.997989083596664,0.0036647208019847
47.02671646078713,0.0037103945777649
47.05544383797759,0.0032294349888714
47.08417121516805,0.003460221371183
47.11289859235851,0.0034734844858062
47.141625969548976,0.0034781549866561
47.17035334673944,0.0035419774092738
47.1990807239299,0.0032801671251846
47.22780810112037,0.003136857727032
47.25653547831082,0.0031492555809499
47.28526285550129,0.0029544462519402
47.31399023269175,0.0028995350395306
47.342717609882214,0.002923163009539
47.37144498707268,0.0030980371139697
47.40017236426314,0.0030473111542319
47.4288997414536,0.0030291242085321
47.45762711864406,0.0030320349772419
47.486354495834526,0.0031362836683697
47.51508187302499,0.0032083453337853
47.54380925021545,0.003154481806832
47.57253662740592,0.0030237190363677
47.60126400459637,0.0030168202440523
47.62999138178684,0.0030405433298086
47.6587187589773,0.0031086991408489
47.687446136167765,0.0030277667229395
47.71617351335823,0.0030633468048615
47.74490089054869,0.0032954284488455
47.77362826773915,0.0032143803312895
47.80235564492961,0.0031786466386926
47.83108302212008,0.0032785858068279
47.85981039931054,0.0033314455321879
47.888537776501,0.0033612866947341
47.91726515369147,0.003407806651713
47.94599253088192,0.0033333015050293
47.97471990807239,0.0031146233837905
48.00344728526285,0.0032222369834092
48.032174662453315,0.0031307634126632
48.06090203964378,0.0029313981815336
48.08962941683424,0.0030395969133992
48.1183567940247,0.0031441962546301
48.14708417121516,0.0025851496850784
48.175811548405626,0.0028718774399774
48.20453892559609,0.0029260821938454
48.233266302786554,0.0029204277423087
48.26199367997702,0.0030312601681073
48.290721057167474,0.0031525052581908
48.31944843435794,0.0027946252241657
48.3481758115484,0.0027081520210961
48.376903188738865,0.0044667141255524
48.40563056592933,0.0016296080660465
48.43435794311979,0.0025923518147476
48.46308532031025,0.0033701628445655
48.49181269750071,0.0029037619276386
48.520540074691176,0.002993427208477
48.54926745188164,0.0029983311880554
48.577994829072104,0.0029807894142938
48.60672220626257,0.003020218743379
48.635449583453024,0.0027368217753269
48.66417696064349,0.0029421647819349
48.69290433783395,0.0033319249972365
48.721631715024415,0.0028582815804981
48.75035909221488,0.0030901193699932
48.77908646940534,0.0032626351720787
48.8078138465958,0.003174652326469
48.83654122378626,0.0032351709149535
48.86526860097673,0.0030212557499889
48.89399597816719,0.0030284201864141
48.922723355357654,0.0035287712760677
48.95145073254812,0.002467804130841
48.980178109738574,0.0029019346331843
49.00890548692904,0.0031210086063341
49.0376328641195,0.0029526797558068
49.066360241309965,0.0029435761261375
49.09508761850043,0.0029773614842235
49.12381499569089,0.0030382544089689
49.15254237288135,0.0030416913834447
49.18126975007181,0.0030281757324678
49.20999712726228,0.0030277998552663
49.23872450445274,0.0028435590106471
49.2674518816432,0.003101308530952
49.29617925883367,0.0030400395900495
49.32490663602413,0.0029628141144756
49.35363401321459,0.0031288751704651
49.38236139040505,0.0032474268562585
49.411088767595515,0.0028149256473939
49.43981614478598,0.0031810451977369
49.46854352197644,0.0045639660327934
49.4972708991669,0.0054137116073999
49.52599827635736,0.0081501129707254
49.55472565354783,0.0105662110405639
49.58345303073829,0.0092817886208432
49.612180407928754,0.009533000131706
49.64090778511922,0.0096946139666028
49.669635162309675,0.0096664210980083
49.69836253950014,0.0095473036744435
49.7270899166906,0.0076320197607801
49.755817293881066,0.0047055859846345
49.78454467107153,0.003568257079434
49.81327204826199,0.0034748548112025
49.84199942545245,0.0035102861725119
49.87072680264291,0.003636226103177
49.89945417983338,0.0034587890543336
49.92818155702384,0.0034407630710953
49.956908934214304,0.0040572622678581
49.98563631140477,0.0037961463625169
50.014363688595225,0.0037082159740731
50.04309106578569,0.0037799529388325
50.07181844297615,0.0037351063672712
50.100545820166616,0.0037296692485769
50.12927319735708,0.003623963331402
50.15800057454754,0.0033281808751738
50.186727951738,0.0033394052352371
50.21545532892846,0.0033652247128946
50.24418270611893,0.0031711786804671
50.27291008330939,0.003191279218415
50.301637460499855,0.0031915462123329
50.33036483769032,0.0031303689260329
50.359092214880775,0.003343161495007
50.38781959207124,0.0032837730277022
50.4165469692617,0.0032818650511983
50.445274346452166,0.0032320791683165
50.47400172364263,0.003219453328913
50.50272910083309,0.003255499092583
50.53145647802355,0.0032217218583323
50.560183855214014,0.0032468553770663
50.58891123240448,0.0032966344467295
50.61763860959494,0.0028999006258061
50.646365986785405,0.0029033664026978
50.67509336397587,0.0029318373121813
50.703820741166325,0.002810646626047
50.73254811835679,0.0027089513789004
50.76127549554725,0.0027506613821599
50.79000287273771,0.0026857279049136
50.81873024992818,0.0026573725435874
50.84745762711864,0.0030225533594325
50.8761850043091,0.002807340740789
50.90491238149957,0.0029515698353155
50.93363975869003,0.0027754184251843
50.96236713588049,0.0027732736005588
50.991094513070955,0.0030481335757131
51.01982189026142,0.0028184703588337
51.048549267451875,0.0027809268785885
51.07727664464234,0.0028929926594679
51.1060040218328,0.0029765182481856
51.134731399023266,0.0033041475768753
51.16345877621373,0.0029599418080747
51.192186153404194,0.0031558926483817
51.22091353059465,0.0033009254491164
51.249640907785114,0.003251503165449
51.27836828497558,0.0032113700523708
51.30709566216604,0.0033810868827258
51.335823039356505,0.0031118554003844
51.36455041654697,0.002906258919404
51.393277793737425,0.003189668043443
51.42200517092789,0.0030760281727217
51.45073254811835,0.0029834063740886
51.47945992530882,0.0028502897604943
51.50818730249928,0.0029226717547028
51.536914679689744,0.0030459156718952
51.5656420568802,0.0030026100508674
51.594369434070664,0.0028621048737311
51.62309681126113,0.002912840840873
51.65182418845159,0.0029591317309611
51.680551565642055,0.0030878810566365
51.70927894283252,0.0031874197848422
51.738006320022976,0.0031559677558575
51.76673369721344,0.0030634618306252
51.7954610744039,0.0030373631443236
51.82418845159437,0.003026039623075
51.85291582878483,0.0029606782850194
51.881643205975294,0.0030359307879141
51.91037058316575,0.0029647569235952
51.939097960356214,0.0027939898289078
51.96782533754668,0.0027665983349444
51.99655271473714,0.002846716756231
52.025280091927605,0.002640071205295
52.05400746911807,0.0026227888021871
52.082734846308526,0.0027266426621662
52.11146222349899,0.0026817356825092
52.14018960068945,0.0026186067238812
52.16891697787992,0.0028748924590372
52.19764435507038,0.0026626042642898
52.22637173226085,0.0027511747952549
52.2550991094513,0.00284481189023
52.283826486641765,0.0029282709175674
52.31255386383223,0.0030770517741749
52.34128124102269,0.0031465667737551
52.37000861821315,0.0030688052735552
52.39873599540362,0.0028590856329754
52.42746337259408,0.0034260950913812
52.45619074978454,0.0033002060338101
52.484918126975,0.003175954211785
52.51364550416547,0.0032067458977646
52.54237288135593,0.003015864532796
52.571100258546394,0.0032403042975931
52.59982763573685,0.0031270759549446
52.628555012927315,0.0029300209453138
52.65728239011778,0.0030235445793496
52.68600976730824,0.0029016338213836
52.714737144498706,0.0026969661682495
52.74346452168917,0.002908900807549
52.772191898879626,0.0029242677213029
52.80091927607009,0.002746427793749
52.82964665326055,0.0029782399538399
52.85837403045102,0.0029060817868069
52.88710140764148,0.00283591251748
52.915828784831945,0.0030527309586548
52.9445561620224,0.0029805805688331
52.973283539212865,0.0030679652801149
53.00201091640333,0.0032816382578729
53.03073829359379,0.002686346874349
53.059465670784256,0.0029585082960422
53.08819304797471,0.0029896232926167
53.116920425165176,0.0027409791628539
53.14564780235564,0.0027125937072528
53.174375179546104,0.0028805692386399
53.20310255673657,0.0027754184125075
53.23182993392703,0.0027657302678017
53.26055731111749,0.0027647745146341
53.28928468830795,0.0029219507506021
53.318012065498415,0.0029113060815151
53.34673944268888,0.0028446947867789
53.37546681987934,0.0029534537320809
53.404194197069806,0.003061121506489
53.43292157426026,0.0025421313985782
53.46164895145073,0.0030335093713964
53.49037632864119,0.0057606198994881
53.519103705831654,0.0035481688276278304
53.54783108302212,0.005406306285287386
53.57655846021258,0.004649791992167883
53.60528583740304,0.0063526343836383
53.6340132145935,0.0090931132374058
53.662740591783965,0.0110173260603599
53.69146796897443,0.0103589562560474
53.72019534616489,0.0104263262001971
53.74892272335536,0.0102928996306977
53.77765010054581,0.0099553347563994
53.80637747773628,0.009269127849316
53.83510485492674,0.006587935169776116
53.8638322321172,0.006254604921899218
53.89255960930767,0.005133290451059822
53.92128698649813,0.0029630325578262
53.95001436368859,0.0024263553173894
53.97874174087905,0.003298686890152
54.007469118069515,0.0032108465093261
54.03619649525998,0.0031356193121489
54.06492387245044,0.0030689470967068
54.09365124964091,0.0030728400962864
54.12237862683136,0.002985846859465
54.15110600402183,0.0031379827907656
54.17983338121229,0.0031974306659719
54.208560758402754,0.0029844883628751
54.23728813559322,0.0029983839661861
54.26601551278368,0.0031308873391469
54.29474288997414,0.0027971362936145
54.3234702671646,0.0028520197121599
54.352197644355066,0.0028777719609432
54.38092502154553,0.002904510568645
54.40965239873599,0.0030271946249434
54.43837977592646,0.0029488414092326
54.46710715311691,0.0029456212750546
54.49583453030738,0.0029753086436146
54.52456190749784,0.0030464322175056
54.553289284688304,0.0030029869177634
54.58201666187877,0.0028796784273632
54.61074403906923,0.0028966011464027
54.63947141625969,0.0028975897619352
54.66819879345015,0.0026546832820724
54.696926170640616,0.0030839540123275
54.72565354783108,0.0029710065034132
54.75438092502154,0.0027727374231167
54.78310830221201,0.0029647671198291
54.81183567940246,0.0031556677145014
54.84056305659293,0.0029058685567229
54.86929043378339,0.0031313780766426
54.898017810973855,0.0030948976490088
54.92674518816432,0.0032915346574876
54.95547256535478,0.0031514952559336
54.98419994254524,0.0030612145468433
55.0129273197357,0.0031462071712545
55.041654696926166,0.00312156232763
55.07038207411663,0.0033414595787884
55.09910945130709,0.0027694585614969
55.12783682849756,0.0028319446098905
55.156564205688014,0.0029772333196625
55.18529158287848,0.0029200060518135
55.21401896006894,0.0029830795761052
55.242746337259405,0.0027470542126595
55.27147371444987,0.0028069907978499
55.30020109164033,0.0027449838378979
55.32892846883079,0.0027799854428092
55.35765584602125,0.0028520967781683
55.38638322321171,0.002673385796682
55.41511060040218,0.0026371101616829
55.44383797759264,0.0025639908570802
55.47256535478311,0.0026303371790061
55.50129273197357,0.0026156447976657
55.53002010916403,0.0027471344707075
55.55874748635449,0.0028690996729144
55.587474863544955,0.0028343263650241
55.61620224073542,0.0028702435102378
55.64492961792588,0.0029392175254193
55.67365699511634,0.0031168506415041
55.7023843723068,0.0032026427960703
55.731111749497266,0.0031508895373233
55.75983912668773,0.0030505022831069
55.788566503878194,0.003017528245266
55.81729388106866,0.0030247335708475
55.846021258259114,0.0030147575082044
55.87474863544958,0.0031211172346599
55.90347601264004,0.0030507265870574
55.932203389830505,0.002909490425575
55.96093076702097,0.0030799442254152
55.98965814421143,0.0030636063274187
56.01838552140189,0.0027693109459399
56.04711289859235,0.0029975140988107
56.07584027578282,0.0030338173555947
56.10456765297328,0.0030058089673145
56.133295030163744,0.002987799727798
56.16202240735421,0.0029949830313648
56.190749784544664,0.0031005920863438
56.21947716173513,0.0030787518587076
56.24820453892559,0.0030308717747962
56.276931916116055,0.0030355081363914
56.30565929330652,0.0030412293256327
56.33438667049698,0.00300166955714
56.36311404768744,0.0030329114048062
56.3918414248779,0.0029747496273952
56.42056880206837,0.0029791992612953
56.44929617925883,0.0030770203340717
56.478023556449294,0.0031103985518312
56.50675093363976,0.0031433510255561
56.535478310830214,0.0031100744618262
56.56420568802068,0.0030018648051263
56.59293306521114,0.0031146629364555
56.621660442401605,0.0032158364463922
56.65038781959207,0.0028418107440329
56.67911519678253,0.0029828983252395
56.70784257397299,0.0029971572880575
56.73656995116345,0.0028456246123073
56.76529732835392,0.0028367169580148
56.79402470554438,0.0029221716847903
56.82275208273485,0.002847734820376
56.85147945992531,0.0028675041435122
56.880206837115765,0.003242234809707
56.90893421430623,0.0027260535121563
56.93766159149669,0.0028164420407636
56.96638896868715,0.0029925407004482
56.99511634587762,0.0029922489398635
57.02384372306808,0.0030808138238032
57.05257110025854,0.0028256575604222
57.081298477449,0.0031221391102889
57.11002585463947,0.0031247443060314
57.13875323182993,0.0030355184220366
57.167480609020394,0.0030920206057346
57.19620798621086,0.0031093937956041
57.224935363401315,0.0030974923401521
57.25366274059178,0.0032009114331886
57.28239011778224,0.0031974080337887
57.311117494972706,0.0030942594812095
57.33984487216317,0.0031710225746935
57.36857224935363,0.0033270408109941
57.39729962654409,0.0032816887894556
57.42602700373455,0.0031067623248576
57.45475438092502,0.0034275950100181
57.48348175811548,0.0032643945128506
57.512209135305945,0.0031873607571267
57.54093651249641,0.0033068352645016
57.569663889686865,0.0032656465960714
57.59839126687733,0.002740303787637
57.62711864406779,0.0035149114739235
57.655846021258256,0.0057428950847675
57.68457339844872,0.0052732672757582
57.71330077563918,0.0091157522867757
57.74202815282964,0.0112451247420227
57.770755530020104,0.0091884552141132
57.79948290721057,0.0096776626067308
57.82821028440103,0.0104021909127672
57.856937661591495,0.0090341165617008
57.88566503878196,0.0087506721798345
57.914392415972415,0.0075833632901018
57.94311979316288,0.0052913166446232
57.97184717035334,0.0033322001528091
58.000574547543806,0.0031012362880776
58.02930192473427,0.0031069003275083
58.05802930192473,0.0031143330764246
58.08675667911519,0.0030338112132795
58.115484056305654,0.0030830859087494
58.14421143349612,0.003157076865111
58.17293881068658,0.0030913831229633
58.201666187877045,0.003160301375352
58.23039356506751,0.0033879506724849
58.259120942257965,0.0031444272573822
58.28784831944843,0.0031262386575389
58.31657569663889,0.0037083991652974
58.34530307382936,0.0027768287993982
58.37403045101982,0.0030880192209754
58.40275782821029,0.0030418729198916
58.43148520540074,0.0029386916869735
58.4602125825912,0.0029876700522395
58.48893995978167,0.0030414754153503
58.51766733697213,0.0030589103101933
58.546394714162595,0.0030754451626342
58.57512209135306,0.0030861207909105
58.603849468543515,0.0031340893839857
58.63257684573398,0.0032621144444312
58.66130422292444,0.0032321039602521
58.69003160011491,0.0031107981519477
58.71875897730537,0.0031966335270234
58.747486354495834,0.0031415773094461
58.77621373168629,0.0028200463406164
58.804941108876754,0.0035098287507821
58.83366848606722,0.0032977658592921
58.86239586325768,0.0031656701049678
58.891123240448145,0.0031153681618889
58.9198506176386,0.0031025723174169
58.948577994829066,0.0031779713923799
58.97730537201953,0.0032383295353811
59.00603274920999,0.0032533404840913
59.03476012640046,0.002902110870239
59.06348750359092,0.0029751615440253
59.09221488078138,0.0030831051377055
59.12094225797184,0.0030495297254503
59.149669635162304,0.0030713477029732
59.17839701235277,0.0029685705266478
59.20712438954323,0.0032113854361248
59.235851766733695,0.003194314087936
59.26457914392415,0.0030028350489211
59.293306521114616,0.003389380776488
59.32203389830508,0.0035402299583254
59.35076127549554,0.0026299726338511
59.37948865268601,0.0032571526095731
59.40821602987647,0.0031329932548432
59.43694340706693,0.0031540733183227
59.46567078425739,0.003054353273978
59.494398161447855,0.0029988849447846
59.52312553863832,0.0029554977517908
59.55185291582878,0.0029416360398576
59.580580293019246,0.0038969990609935
59.6093076702097,0.0021825808698331
59.638035047400166,0.0027568859690373
59.66676242459063,0.003166106954705
59.69548980178109,0.0029316938680605
59.72421717897156,0.0029555502515897
59.75294455616202,0.0030397877489507
59.78167193335248,0.0029587465101421
59.81039931054294,0.0029594078567823
59.839126687733405,0.002765979697984
59.86785406492387,0.0028512267895872
59.89658144211433,0.0031038103870561
59.9253088193048,0.0028696237754509
59.95403619649525,0.0030275569223076
59.98276357368571,0.0030710455888695
60.01149095087618,0.0029772633759182
60.04021832806664,0.0030795594354321
60.06894570525711,0.0030805257458471
60.09767308244757,0.0031266678635678
60.12640045963803,0.0034469610136249
60.15512783682849,0.0027497627869574
60.183855214018955,0.002946640804772
60.21258259120942,0.0030967586950492
60.24130996839988,0.0028956529639572
60.270037345590346,0.0028376819807119
60.2987647227808,0.0031310341347165
60.327492099971266,0.0030462526580791
60.35621947716173,0.003043005033721
60.384946854352194,0.0029957816311669
60.41367423154266,0.0030260568709609
60.44240160873312,0.0031059969183238
60.47112898592358,0.0031110734884585
60.49985636311404,0.0031045681579518
60.528583740304505,0.003020622135283
60.55731111749497,0.0031755452783282
60.58603849468543,0.0031004722260528
60.614765871875896,0.0029065141722407
60.64349324906635,0.0031623079344339
60.672220626256816,0.0030703821574596
60.70094800344728,0.0031161471974521
60.729675380637744,0.0030911163918345
60.75840275782821,0.0030322077507992
60.78713013501867,0.0029544354515801
60.81585751220913,0.0028885697235468
60.84458488939959,0.0028952544936323
60.873312266590055,0.0027756106256648
60.90203964378052,0.0027681403765508
60.93076702097098,0.0027506783073231
60.959494398161446,0.0026239982598247
60.9882217753519,0.0027707035366142
61.01694915254237,0.0026854055797247
61.04567652973283,0.0028094794456388
61.074403906923294,0.0027829442653106
61.10313128411376,0.0027543228244664
61.13185866130422,0.0029129075449727
61.16058603849468,0.0030419086134807
61.18931341568514,0.0028507911654267
61.218040792875605,0.0025391171131651
61.24676817006607,0.0035413717064454
61.27549554725653,0.0029628627750779
61.304222924447,0.0029054155792616
61.33295030163745,0.002918713030813
61.36167767882792,0.0028134893901269
61.39040505601838,0.0028961654539782
61.41913243320885,0.002956130957559
61.44785981039931,0.0029006450325211
61.47658718758977,0.002617338046807
61.50531456478023,0.0029004255718344
61.53404194197069,0.0031920178548818
61.56276931916115,0.0029589341640552
61.59149669635162,0.0031806534542618
61.62022407354208,0.0032572884517132
61.64895145073255,0.0037147493497704
61.677678827923,0.0053979278514982
61.70640620511347,0.0061707490906807
61.73513358230393,0.0065564563530146
61.763860959494394,0.0067938459435152
61.79258833668486,0.0062459260132785
61.82131571387532,0.0064483161622741
61.85004309106578,0.0073071032820566
61.87877046825624,0.00430810411614
61.907497845446706,0.0041186670257731
61.93622522263717,0.0038895799774174
61.96495259982763,0.0031076427118238
61.9936799770181,0.0029994554588426
62.02240735420855,0.0034146396629382
62.05113473139902,0.0030907792031445
62.07986210858948,0.0030652957650161
62.108589485779945,0.0031520381557568
62.13731686297041,0.0031251103543844
62.16604424016087,0.0030159132638859
62.19477161735133,0.0030485773985884
62.22349899454179,0.0032284913612545
62.252226371732256,0.0032156212121022
62.28095374892272,0.0033885733073522
62.30968112611318,0.003701281285808
62.33840850330365,0.0005173705301238
62.367135880494104,0.0051369496606998
62.39586325768457,0.0039643359950018
62.42459063487503,0.0032604408303889
62.453318012065495,0.0032934752250356
62.48204538925596,0.0032855009335594
62.51077276644642,0.0029547088557519
62.53950014363688,0.0030641647372296
62.56822752082734,0.0034144179528226
62.596954898017806,0.0031543804127655
62.62568227520827,0.0031076902631704
62.65440965239873,0.0031782238609255
62.6831370295892,0.0030255594580369
62.711864406779654,0.0030667098297712
62.74059178397012,0.0030847420478332
62.76931916116058,0.0031126600920448
62.798046538351045,0.0032388719223587
62.82677391554151,0.0031462704359132
62.85550129273197,0.0032051804796568
62.88422866992243,0.0032817081839253
62.91295604711289,0.0031926802420892
62.94168342430336,0.0031579825899819
62.97041080149382,0.0033911218780044
62.99913817868429,0.0031134590829796
63.02786555587475,0.0031658786529333
63.0565929330652,0.0029999453101437
63.08532031025567,0.00306922716708
63.11404768744613,0.0031745099887863
63.142775064636595,0.0030013143389892
63.17150244182706,0.0029062198441078
63.20022981901752,0.0029365937875173
63.22895719620798,0.0028744480658487
63.25768457339844,0.0029438223074867
63.28641195058891,0.0031491686794695
63.31513932777937,0.0029957365066521
63.343866704969834,0.0030533087079943
63.3725940821603,0.0031886229496958
63.401321459350754,0.0031752260254338
63.43004883654122,0.0032033111843071
63.45877621373168,0.0030255575347316
63.487503590922145,0.0031797915180365
63.51623096811261,0.0034247956000179
63.54495834530307,0.0034362403046996
63.57368572249353,0.0031447315469003
63.60241309968399,0.0033234544235238
63.63114047687446,0.003265850905397
63.65986785406492,0.0030972750933428
63.688595231255384,0.0030377448005914
63.71732260844585,0.002956340451127
63.746049985636304,0.0028722050123131
63.77477736282677,0.0028294171356879
63.80350474001723,0.0028425690764377
63.832232117207695,0.0029448887027185
63.86095949439816,0.0029618743744367
63.88968687158862,0.0028714090217492
63.91841424877908,0.0029610804754548
63.94714162596954,0.0028766870738777
63.97586900316001,0.0029156811056997
64.00459638035046,0.0028271428377077
64.03332375754093,0.0027967697515788
64.06205113473139,0.0028834564587821
64.09077851192185,0.0028405905625055
64.11950588911232,0.0028137876105599
64.14823326630278,0.0029385677386638
64.17696064349325,0.0029686230574403
64.20568802068371,0.0029648107205613
64.23441539787417,0.0028961194075429
64.26314277506464,0.0028543815630863
64.2918701522551,0.0029657506958482
64.32059752944556,0.0029085749195787
64.34932490663601,0.0028951499149711
64.37805228382648,0.0026971095568442
64.40677966101694,0.0028166183264747
64.4355070382074,0.0028923410212745
64.46423441539787,0.0027876868068783
64.49296179258833,0.0028636397964347
64.5216891697788,0.0029016332111936
64.55041654696926,0.0028425979125682
64.57914392415972,0.0028524579203457
64.60787130135019,0.0028287128537784
64.63659867854065,0.0028179094575067
64.66532605573111,0.0027962355495008
64.69405343292156,0.0026518486330751
64.72278081011203,0.0027719321759497
64.75150818730249,0.0027652794699735
64.78023556449295,0.002830784272944
64.80896294168342,0.0029990234577879
64.83769031887388,0.0030710214709793
64.86641769606435,0.0031332442993531
64.89514507325481,0.0032633457124955
64.92387245044527,0.0033337631226197
64.95259982763574,0.0031136484988643
64.9813272048262,0.0031464045987594
65.01005458201665,0.0031722038303549
65.03878195920711,0.0030937109676099
65.06750933639758,0.0030466229752633
65.09623671358804,0.0029571365702825
65.1249640907785,0.0029352876206109
65.15369146796897,0.0030895630913276
65.18241884515943,0.0032365432917715
65.2111462223499,0.003241385262536
65.23987359954036,0.0032421322955431
65.26860097673082,0.0032233058790248
65.29732835392129,0.003262331041795
65.32605573111175,0.0031892350395941
65.3547831083022,0.003029926025979
65.38351048549266,0.0035054760121218
65.41223786268313,0.0026121490468972
65.44096523987359,0.0025194008933414
65.46969261706406,0.0030076883422953
65.49841999425452,0.0029824377007999
65.52714737144498,0.0029741142427328
65.55587474863545,0.0029510897679188
65.58460212582591,0.0029164046960651
65.61332950301637,0.0030556437082239
65.64205688020684,0.0030445010762619
65.6707842573973,0.0031693280016936
65.69951163458775,0.0029381552777124
65.72823901177821,0.0029353428810992
65.75696638896868,0.0028564235732923
65.78569376615914,0.0029329284808871
65.8144211433496,0.0025159822907624
65.84314852054007,0.004800385283862
65.87187589773053,0.008905867122266
65.900603274921,0.009674772390585
65.92933065211146,0.0103083201579219
65.95805802930192,0.0103942860379801
65.98678540649239,0.0093875211924019
66.01551278368285,0.0109029407837048
66.0442401608733,0.0131307939283083
66.07296753806376,0.0052727888058047
66.10169491525423,0.0079278293128172
66.13042229244469,0.0061296998774483
66.15914966963516,0.0043133566327267
66.18787704682562,0.0045373417755215
66.21660442401608,0.0041703059636541
66.24533180120655,0.0036445233811351
66.27405917839701,0.0035276804882063
66.30278655558747,0.0035318459365417
66.33151393277794,0.0034271496278768
66.3602413099684,0.003437053173047
66.38896868715885,0.0034134785456473
66.41769606434931,0.0032314858355538
66.44642344153978,0.0030891499915168
66.47515081873024,0.0032823303745464
66.5038781959207,0.0030455445036883
66.53260557311117,0.0032880635272169
66.56133295030163,0.0028601224258435
66.5900603274921,0.0029679627529631
66.61878770468256,0.002968914694644
66.64751508187302,0.0031468430276121
66.67624245906349,0.0032041959709715
66.70496983625395,0.0028793150739033
66.7336972134444,0.0027944597786586
66.76242459063486,0.0027932170515064
66.79115196782533,0.0029684436365784
66.81987934501579,0.0028477213070396
66.84860672220626,0.0026484540382095
66.87733409939672,0.0029277139840336
66.90606147658718,0.0029187616009404
66.93478885377765,0.0030203182662287
66.96351623096811,0.0032480482219464
66.99224360815857,0.0032943923292176
67.02097098534904,0.0031514195518548
67.0496983625395,0.0032668874360201
67.07842573972995,0.0033792755252943
67.10715311692041,0.0035840846335559
67.13588049411088,0.0031685329879117
67.16460787130134,0.0030422415463765
67.1933352484918,0.0032137474372647
67.22206262568227,0.0031142969107288
67.25079000287273,0.0032349287443389
67.2795173800632,0.0033410997478788
67.30824475725366,0.0031542740087997
67.33697213444412,0.0031698122141813
67.36569951163459,0.003186422187528
67.39442688882505,0.0031198093565307
67.4231542660155,0.0033630514933527
67.45188164320597,0.0032795635640207
67.48060902039643,0.0031770299649081
67.50933639758689,0.0032073761398964
67.53806377477736,0.0032036206556749
67.56679115196782,0.0031296429321378
67.59551852915828,0.0030856095607032
67.62424590634875,0.0029502494468408
67.65297328353921,0.0027956778032045
67.68170066072967,0.0030887219296457
67.71042803792014,0.003115204048062
67.7391554151106,0.0030527600146815
67.76788279230105,0.0030542623172037
67.79661016949152,0.0030606515437597
67.82533754668198,0.0032309207557104
67.85406492387244,0.0031938374141355
67.8827923010629,0.0032084777613859
67.91151967825337,0.0029569372041166
67.94024705544383,0.0030374624666028
67.9689744326343,0.0033902701656407
67.99770180982476,0.0032007301903838
68.02642918701522,0.0033406083623287
68.05515656420569,0.0032525772128457
68.08388394139615,0.0033942590462942
68.1126113185866,0.0033996808407798
68.14133869577707,0.0033763914160272
68.17006607296753,0.0034883751683595
68.19879345015799,0.0034201069101945
68.22752082734846,0.0031110037484754
68.25624820453892,0.0030975612857558
68.28497558172938,0.0030341941401559
68.31370295891985,0.0029437253236427
68.34243033611031,0.0029290568239798
68.37115771330078,0.002859409452758
68.39988509049124,0.0028261092952033
68.4286124676817,0.0029142802929889
68.45733984487215,0.002937788969846
68.48606722206262,0.0029185623285523
68.51479459925308,0.0028549799775646
68.54352197644354,0.0028362461889362
68.572249353634,0.0029154319292602
68.60097673082447,0.0029579829468538
68.62970410801493,0.0027354185057888
68.6584314852054,0.0027656796033654
68.68715886239586,0.0028361124463511
68.71588623958633,0.0028502336102175
68.74461361677679,0.0028285002588506
68.77334099396725,0.0028492200150448
68.8020683711577,0.0029529335274254
68.83079574834817,0.0029929383193395
68.85952312553863,0.0029610173694081
68.8882505027291,0.0030360588418093
68.91697787991956,0.0029617593308641
68.94570525711002,0.0029552890130545
68.97443263430048,0.003027533705665
69.00316001149095,0.0030290617816071
69.03188738868141,0.0031609926086911
69.06061476587188,0.0030951999492795
69.08934214306234,0.0030683261106482
69.1180695202528,0.0031973552913333
69.14679689744325,0.0032851306238327
69.17552427463372,0.0033525449721372
69.20425165182418,0.0032183482278121
69.23297902901464,0.0032525985461275
69.2617064062051,0.0034790255352625
69.29043378339557,0.003194503156115
69.31916116058603,0.002879970984002
69.3478885377765,0.0030894959606699
69.37661591496696,0.0030018783087192
69.40534329215743,0.0029371261146624
69.43407066934789,0.0029072449188203
69.46279804653835,0.0029048949851179
69.4915254237288,0.0029247544404246
69.52025280091927,0.0029994571842462
69.54898017810973,0.0030947339940231
69.5777075553002,0.0030263230490685
69.60643493249066,0.0035848042303015
69.63516230968112,0.0043098664880252
69.66388968687158,0.0043643430518448
69.69261706406205,0.0055909181166263
69.72134444125251,0.0083587947204819
69.75007181844298,0.0071939492198455
69.77879919563344,0.0071033359734417
69.8075265728239,0.0073026267319214
69.83625395001435,0.0069765866490546
69.86498132720482,0.0071045968228009
69.89370870439528,0.0060345204758041
69.92243608158574,0.0043624935790574
69.95116345877621,0.0035545590508978
69.97989083596667,0.0034651894115469
70.00861821315713,0.0034777709956173
70.0373455903476,0.0035215898753217
70.06607296753806,0.0034657657056241
70.09480034472853,0.0032600565022853
70.12352772191899,0.0033451304733943
70.15225509910945,0.003438105834777
70.1809824762999,0.0029516531322071
70.20970985349037,0.0030166391944774
70.23843723068083,0.0032451130364203
70.2671646078713,0.0029138345223745
70.29589198506176,0.0030007877783369
70.32461936225222,0.0028656286518578
70.35334673944269,0.0029864709081798
70.38207411663315,0.0029751080627403
70.41080149382361,0.0030114760975284
70.43952887101408,0.0029859416661552
70.46825624820454,0.0029144130071827
70.496983625395,0.0034199245364982
70.52571100258545,0.0031966214996369
70.55443837977592,0.0033338509940022
70.58316575696638,0.0033494995068553
70.61189313415684,0.0034201455468648
70.64062051134731,0.0036673745638232
70.66934788853777,0.0034550819417956
70.69807526572824,0.0033971186135271
70.7268026429187,0.0033653626727017
70.75553002010916,0.0032770506763472
70.78425739729963,0.0032764249616835
70.81298477449009,0.0031706367498399
70.84171215168054,0.0030501884671517
70.870439528871,0.0031518316044379
70.89916690606147,0.0028258164742951
70.92789428325193,0.0029222354393505
70.9566216604424,0.0030002119097976
70.98534903763286,0.0028929363583905
71.01407641482332,0.0028919242125199
71.04280379201379,0.0031693214824334
71.07153116920425,0.0030860678852673
71.10025854639471,0.0031053163003517
71.12898592358518,0.0030481147137373
71.15771330077564,0.0032106957867692
71.18644067796609,0.0032141452485137
71.21516805515655,0.0034638404894522
71.24389543234702,0.0031721214149683
71.27262280953748,0.002242086898574
71.30135018672794,0.0036939961284581
71.33007756391841,0.0033828937996797
71.35880494110887,0.0030371166646551
71.38753231829934,0.0030802745045583
71.4162596954898,0.0029223829016975
71.44498707268026,0.0032421690115576
71.47371444987073,0.0031361829445053
71.50244182706119,0.0030917740339169
71.53116920425164,0.0030854737165224
71.5598965814421,0.0030334592714102
71.58862395863257,0.0030579909993293
71.61735133582303,0.0031140563236542
71.6460787130135,0.0031220921695149
71.67480609020396,0.0032701031860444
71.70353346739442,0.0030447293513366
71.73226084458489,0.0031608218504256
71.76098822177535,0.0033238039209262
71.78971559896581,0.0032760925402137
71.81844297615628,0.003149440752562
71.84717035334674,0.0031595721614788
71.87589773053719,0.0031598304262886
71.90462510772765,0.0030358194895772
71.93335248491812,0.0030461782640265
71.96207986210858,0.0030179009115595
71.99080723929904,0.0028196561715145
72.01953461648951,0.0029583654708665
72.04826199367997,0.00293736087191
72.07698937087044,0.0028351272687364
72.1057167480609,0.0028502116097147
72.13444412525136,0.0028708210337535
72.16317150244183,0.0028604535579809
72.19189887963229,0.0028578028651103
72.22062625682274,0.0028695972856519
72.2493536340132,0.0029803824234699
72.27808101120367,0.0029492529161274
72.30680838839413,0.0029953040934835
72.3355357655846,0.0029476328487844
72.36426314277506,0.0029526741013543
72.39299051996552,0.003346211053567
72.42171789715599,0.0031988593475681
72.45044527434645,0.0032319320740729
72.47917265153691,0.0032567451457152
72.50790002872738,0.0032536470473898
72.53662740591784,0.0033722541587658
72.56535478310829,0.0033715498247707
72.59408216029875,0.0033539636345894
72.62280953748922,0.0034024668206129
72.65153691467968,0.0034016524694315
72.68026429187015,0.0032133483313526
72.70899166906061,0.0030829014625356
72.73771904625107,0.0031232074656552
72.76644642344154,0.0028369308183581
72.795173800632,0.0029013598101792
72.82390117782246,0.0029292123600052
72.85262855501293,0.0029829079022352
72.88135593220339,0.0030016496710107
72.91008330939384,0.002843294427963
72.9388106865843,0.0030329785275646
72.96753806377477,0.0032744220893416
72.99626544096523,0.0027171437351555
73.0249928181557,0.0030050463098648
73.05372019534616,0.0030556173877578
73.08244757253662,0.0029292227724272
73.11117494972709,0.0030054594874769
73.13990232691755,0.0030476166619567
73.16862970410801,0.0029394120730142
73.19735708129848,0.0028323696120746
73.22608445848894,0.0029899065660778
73.25481183567939,0.0029877856251005
73.28353921286985,0.0028439463175322
73.31226659006032,0.0029883676208767
73.34099396725078,0.0031223898478775
73.36972134444125,0.0029442994730012
73.39844872163171,0.0029976733772136
73.42717609882217,0.0029898825216471
73.45590347601264,0.0029423574001958
73.4846308532031,0.0027827838129833
73.51335823039356,0.0028381997743876
73.54208560758403,0.0034360442441754
73.57081298477449,0.0024128504860434
73.59954036196494,0.001482981697298
73.6282677391554,0.008659044334237
73.65699511634587,0.0078930071515801
73.68572249353633,0.0070302549624795
73.7144498707268,0.0094107017420255
73.74317724791726,0.0090772955831636
73.77190462510772,0.008851212275144
73.80063200229819,0.0087303249663698
73.82935937948865,0.008140829500784
73.85808675667911,0.0083927980859948
73.88681413386958,0.0045280846292936
73.91554151106004,0.0028545844833867
73.94426888825049,0.0033505043934251
73.97299626544095,0.0029713433986194
74.00172364263142,0.0030904958230297
74.03045101982188,0.0030166417762254
74.05917839701235,0.0029851896161087
74.08790577420281,0.0029864129443805
74.11663315139327,0.0029923346876415
74.14536052858374,0.0029451894308626
74.1740879057742,0.0027821801325361
74.20281528296466,0.0027698205541693
74.23154266015513,0.0029194446640024
74.26027003734559,0.0029909927897464
74.28899741453604,0.0029179876298376
74.3177247917265,0.0029026225776587
74.34645216891697,0.0030544200995038
74.37517954610743,0.0031457251980177
74.4039069232979,0.0032809409665958
74.43263430048836,0.0028233592414382
74.46136167767882,0.0029345147538514
74.49008905486929,0.0030098339657843
74.51881643205975,0.0029306913045139
74.54754380925021,0.0030747713000894
74.57627118644068,0.0026216199150642
74.60499856363114,0.0028899375446902
74.63372594082159,0.0030178975758929
74.66245331801206,0.0029599137655965
74.69118069520252,0.0029661299172854
74.71990807239298,0.0030185741866132
74.74863544958345,0.003039873351952
74.77736282677391,0.0031806181901688
74.80609020396437,0.0031765337875297
74.83481758115484,0.0031777258474898
74.8635449583453,0.003180452819021
74.89227233553576,0.0033121813549293
74.92099971272623,0.0032753617058096
74.94972708991669,0.0027671111536087
74.97845446710714,0.0035940517945245
75.0071818442976,0.003062554169083
75.03590922148807,0.0028334432917685
75.06463659867853,0.0030769137186077
75.093363975869,0.0030959368126243
75.12209135305946,0.0027715703114023
75.15081873024992,0.0029468275641048
75.17954610744039,0.0030194193199682
75.20827348463085,0.0027940628288377
75.23700086182131,0.0031371936492839
75.26572823901178,0.0031992710268165
75.29445561620224,0.0029993997426353
75.32318299339269,0.0031380494799382
75.35191037058316,0.0033134285784312
75.38063774777362,0.0031065329121931
75.40936512496408,0.0032047483488404
75.43809250215455,0.0032773506121677
75.46681987934501,0.0031747026391044
75.49554725653547,0.0030351299894388
75.52427463372594,0.0030618764895931
75.5530020109164,0.0031127476815105
75.58172938810687,0.0032178097445285
75.61045676529733,0.0032090739593375
75.63918414248779,0.0030733571341616
75.66791151967824,0.0030818868113047
75.6966388968687,0.0030308426425494
75.72536627405917,0.0030355993615042
75.75409365124963,0.0029073566885486
75.7828210284401,0.0030690000213218
75.81154840563056,0.0032235103587377
75.84027578282102,0.0029897806880846
75.86900316001149,0.0030142678054443
75.89773053720195,0.0031252786964927
75.92645791439242,0.003022452337513
75.95518529158288,0.002930950575994
75.98391266877334,0.0031583981975239
76.01264004596379,0.0029364823044
76.04136742315426,0.0028940919139108
76.07009480034472,0.003028335104065
76.09882217753518,0.0030358474700135
76.12754955472565,0.0030165821415441
76.15627693191611,0.0030434269427151
76.18500430910657,0.0029809949072442
76.21373168629704,0.0028547153483782
76.2424590634875,0.0029527376379833
76.27118644067797,0.0029321823554549
76.29991381786843,0.0029685123793688
76.32864119505889,0.0030467214124199
76.35736857224934,0.0030362375541613
76.3860959494398,0.0029562959636
76.41482332663027,0.0029186642990332
76.44355070382073,0.0029301726293697
76.4722780810112,0.003049822950195
76.50100545820166,0.0029733054513911
76.52973283539212,0.002829181477389
76.55846021258259,0.0029461294750836
76.58718758977305,0.0028966073708884
76.61591496696352,0.0028617222268659
76.64464234415398,0.0028699701161548
76.67336972134443,0.0028390919950581
76.70209709853489,0.0028358061007841
76.73082447572536,0.0029187812214923
76.75955185291582,0.0030617036288757
76.78827923010628,0.0030917559401845
76.81700660729675,0.0030420415728736
76.84573398448721,0.0030855684867553
76.87446136167767,0.0030833045741994
76.90318873886814,0.0030328268380903
76.9319161160586,0.0030145766153645
76.96064349324907,0.0029369944018931
76.98937087043953,0.0028732255896058
77.01809824762998,0.0026598230162589
77.04682562482044,0.0030118488969444
77.0755530020109,0.0031636893437936
77.10428037920137,0.0027976191827651
77.13300775639183,0.0028666697095717
77.1617351335823,0.0031622262600313
77.19046251077276,0.0028813909865646
77.21918988796322,0.0029498747560105
77.24791726515369,0.0028985537227933
77.27664464234415,0.00285368744076
77.30537201953462,0.0029481764089939
77.33409939672508,0.0029279733967997
77.36282677391553,0.0028127218586894
77.39155415110599,0.0028525805913194
77.42028152829646,0.0027821907738039
77.44900890548692,0.0028216068002795
77.47773628267738,0.0029075804703676
77.50646365986785,0.0030957230570984
77.53519103705831,0.0030517691278421
77.56391841424877,0.0031755642408559
77.59264579143924,0.0030205684351635
77.6213731686297,0.0026052000235843
77.65010054582017,0.004891607860548
77.67882792301063,0.0052041538284978
77.70755530020108,0.0069181425837128
77.73628267739154,0.0101204145619091
77.765010054582,0.0082151567493108
77.79373743177247,0.0104723224784268
77.82246480896293,0.0092816040045393
77.8511921861534,0.0092437941565462
77.87991956334386,0.0095713764587113
77.90864694053433,0.0088017414113702
77.93737431772479,0.0079728626477997
77.96610169491525,0.0069521764557338
77.99482907210572,0.0052443107745628
78.02355644929618,0.0042305416621962
78.05228382648663,0.0034491620762867
78.0810112036771,0.0036354814340857
78.10973858086756,0.0033774872083606
78.13846595805802,0.0029979864259556
78.16719333524848,0.0030673239045381
78.19592071243895,0.0031503199899888
78.22464808962941,0.0031055635984176
78.25337546681988,0.0030486068028243
78.28210284401034,0.0031746842609196
78.3108302212008,0.0031009606762247
78.33955759839127,0.0030043850939372
78.36828497558173,0.0031816653859814
78.39701235277218,0.0030364005606559
78.42573972996264,0.0025371078252551
78.4544671071531,0.0033867412569547
78.48319448434357,0.0031112630035625
78.51192186153403,0.0029734512679565
78.5406492387245,0.0032422471816646
78.56937661591496,0.0032568505807625
78.59810399310543,0.0030101649133313
78.62683137029589,0.0031426478494701
78.65555874748635,0.0033149630841691
78.68428612467682,0.0030507285812838
78.71301350186728,0.0031270748931652
78.74174087905773,0.0031611021809652
78.7704682562482,0.0032411963482655
78.79919563343866,0.003249800805443
78.82792301062912,0.0033120635412736
78.85665038781958,0.0032313266938002
78.88537776501005,0.0032980607011652
78.91410514220051,0.0032941503050579
78.94283251939098,0.0032938127433794
78.97155989658144,0.0036804982714404
79.0002872737719,0.0027920899841815
79.02901465096237,0.0029683191224949
79.05774202815283,0.0032366783305871
79.08646940534328,0.0030319419849902
79.11519678253374,0.0028856084416912
79.14392415972421,0.0032352177660104
79.17265153691467,0.0030109159289256
79.20137891410513,0.0029834279226861
79.2301062912956,0.0033007254124193
79.25883366848606,0.0029034966664234
79.28756104567653,0.00279302864073
79.31628842286699,0.0030409230885898
79.34501580005745,0.0029955824991651
79.37374317724792,0.0029681819159599
79.40247055443838,0.0032170321594844
79.43119793162883,0.0031025583483978
79.4599253088193,0.0030687690160427
79.48865268600976,0.0032503611409539
79.51738006320022,0.0032838856914243
79.54610744039068,0.003016043024288
79.57483481758115,0.0032086268460228
79.60356219477161,0.0031181539541186
79.63228957196208,0.00322694669971
79.66101694915254,0.0031435152389384
79.689744326343,0.0031438062033913
79.71847170353347,0.0033036425761887
79.74719908072393,0.0032352297771737
79.77592645791438,0.0032788593807081
79.80465383510484,0.0033085244872081
79.83338121229531,0.0031376118237792
79.86210858948577,0.0031108745129337
79.89083596667624,0.0032611094316311
79.9195633438667,0.0032959851325496
79.94829072105716,0.0029773280200765
79.97701809824763,0.0031309506299171
80.00574547543809,0.0032355305126146
80.03447285262855,0.0032351162577611
80.06320022981902,0.003234586917387
80.09192760700948,0.0032173699335605
80.12065498419993,0.0030314711278608
80.1493823613904,0.0029904709096009
80.17810973858086,0.0030744231937982
80.20683711577132,0.003010693317224
80.23556449296179,0.0029013733455747
80.26429187015225,0.0029906286574212
80.29301924734271,0.002938155634493
80.32174662453318,0.0029503833885778
80.35047400172364,0.0029680729574009
80.3792013789141,0.0028855734068271
80.40792875610457,0.0030170272671461
80.43665613329503,0.0029034037109453
80.46538351048548,0.002954531649822
80.49411088767594,0.0029304248012914
80.52283826486641,0.0028681898662641
80.55156564205687,0.0029285729880464
80.58029301924734,0.0030186893636935
80.6090203964378,0.0030786508901604
80.63774777362826,0.0029955633713986
80.66647515081873,0.0030527401968543
80.69520252800919,0.0030387340436503
80.72392990519965,0.0030047961979066
80.75265728239012,0.0030494276749981
80.78138465958058,0.0030885880996819
80.81011203677103,0.0030346068424842
80.8388394139615,0.0030542292765513
80.86756679115196,0.0030441738109177
80.89629416834242,0.0030543520445966
80.92502154553289,0.0030376071254384
80.95374892272335,0.0030037654883947
80.98247629991381,0.0031742102658982
81.01120367710428,0.0031397887427687
81.03993105429474,0.0029713421938642
81.0686584314852,0.0030175015752348
81.09738580867567,0.0030399261546256
81.12611318586613,0.0029381420259021
81.15484056305658,0.0029654798221496
81.18356794024704,0.0030474722111379
81.21229531743751,0.0026419640117996
81.24102269462797,0.0027754433665926
81.26975007181844,0.0028371707734619
81.2984774490089,0.0027314334611679
81.32720482619936,0.0027387147239348
81.35593220338983,0.0027676931646597
81.38465958058029,0.0027786503008881
81.41338695777075,0.0029630839200893
81.44211433496122,0.0028671477717208
81.47084171215168,0.0029947071563529
81.49956908934213,0.0029505720669481
81.5282964665326,0.0030118833688408
81.55702384372306,0.0029362191046035
81.58575122091352,0.0032920339258423
81.61447859810399,0.0030608131644797
81.64320597529445,0.0034319921858461
81.67193335248491,0.0028338287808996
81.70066072967538,0.0009351427596789
81.72938810686584,0.0065633987444835
81.7581154840563,0.0057150547952779
81.78684286124677,0.005574047602056
81.81557023843723,0.0071665772751571
81.84429761562768,0.0084151780833027
81.87302499281815,0.0087225691714916
81.90175237000861,0.008585769314689
81.93047974719907,0.0084842091930011
81.95920712438954,0.0082287839399718
81.98793450158,0.0070245442398505
82.01666187877046,0.0067076491401388
82.04538925596093,0.0057919271516948
82.07411663315139,0.0040625557481209
82.10284401034185,0.0038594751588664
82.13157138753232,0.0037791102909218
82.16029876472278,0.0038838986836678
82.18902614191323,0.0037506507001483
82.2177535191037,0.0030925414117146
82.24648089629416,0.0032210715401333
82.27520827348462,0.0032740829447774
82.30393565067509,0.0033641769797984
82.33266302786555,0.0031753843983392
82.36139040505601,0.0032875374833655
82.39011778224648,0.003243086465508
82.41884515943694,0.0033966638601144
82.4475725366274,0.0033317695538123
82.47629991381787,0.0033979614827646
82.50502729100832,0.0030874004208717
82.53375466819878,0.003387772944058
82.56248204538925,0.0033878007217433
82.59120942257971,0.0033160566234734
82.61993679977017,0.0033971431274085
82.64866417696064,0.0034828002269901
82.6773915541511,0.0034021344352501
82.70611893134156,0.0033825006018266
82.73484630853203,0.003568319469383
82.76357368572249,0.0035788680635546
82.79230106291295,0.003461387829451
82.82102844010342,0.0033761972515854
82.84975581729387,0.00329898018868
82.87848319448433,0.0032775935215045
82.9072105716748,0.0033027949802232
82.93593794886526,0.0033434372055589
82.96466532605572,0.0034071780910125
82.99339270324619,0.0030201586264249
83.02212008043665,0.0032686506072444
83.05084745762711,0.003342587449938
83.07957483481758,0.0032847675901885
83.10830221200804,0.0033489549618228
83.1370295891985,0.0034282363654512
83.16575696638897,0.0034071111427538
83.19448434357942,0.0032157287667341
83.22321172076988,0.0031146054956457
83.25193909796035,0.0031673501682495
83.28066647515081,0.0031270872048718
83.30939385234127,0.0033999401440396
83.33812122953174,0.003332662663557
83.3668486067222,0.0028679180642239
83.39557598391266,0.0032212153213295
83.42430336110313,0.0033204356578564
83.45303073829359,0.0032817985415445
83.48175811548406,0.0032388677065248
83.51048549267452,0.0032509585463257
83.53921286986497,0.003045642691795
83.56794024705543,0.0031926270751592
83.5966676242459,0.0034076458030987
83.62539500143636,0.0030045546247026
83.65412237862682,0.0030128069843125
83.68284975581729,0.0032157789558464
83.71157713300775,0.0031188551189489
83.74030451019821,0.003016339855062
83.76903188738868,0.0030799723574254
83.79775926457914,0.0030510665892192
83.8264866417696,0.0029724789880063
83.85521401896007,0.0029739443767053
83.88394139615052,0.003142581019665
83.91266877334098,0.0031645908089391
83.94139615053145,0.0030695307595713
83.97012352772191,0.0035078826638851
83.99885090491237,0.002944218304524
84.02757828210284,0.0032206970953036
84.0563056592933,0.0031462097784662
84.08503303648376,0.0031808816634308
84.11376041367423,0.0030079470734647
84.14248779086469,0.0029976646556988
84.17121516805516,0.002933231633158
84.19994254524562,0.0028207428223089
84.22866992243607,0.00290502840985
84.25739729962653,0.0028565819048338
84.286124676817,0.0023227933567451
84.31485205400746,0.0032240800230344
84.34357943119792,0.0031246984664174
84.37230680838839,0.0028115618771367
84.40103418557885,0.0029859776513034
84.42976156276931,0.0030949172753401
84.45848893995978,0.0031283839440316
84.48721631715024,0.0031607127207628
84.5159436943407,0.0030311765452092
84.54467107153117,0.0028801559547246
84.57339844872162,0.003090327677922
84.60212582591208,0.0032750485389695
84.63085320310255,0.0031546205175297
84.65958058029301,0.0032760926337453
84.68830795748347,0.0031637170821093
84.71703533467394,0.0033603350306305
84.7457627118644,0.0032494637229885
84.77449008905486,0.0035597639126484
84.80321746624533,0.0034072538839369
84.83194484343579,0.0026129011526299
84.86067222062626,0.0031023972941376
84.88939959781672,0.0030222937694832
84.91812697500717,0.002651826261736
84.94685435219763,0.0032065162413609
84.9755817293881,0.0034162289999314
85.00430910657856,0.0022589038254422
85.03303648376902,0.0031390365734163
85.06176386095949,0.0031788399474868
85.09049123814995,0.0029714071881835
85.11921861534042,0.0031472717236155
85.14794599253088,0.0032380325341628
85.17667336972134,0.003111209012934
85.2054007469118,0.0031003430386535
85.23412812410227,0.0032559795251972
85.26285550129272,0.0030750065610546
85.29158287848318,0.0030188120304594
85.32031025567365,0.0030704501171253
85.34903763286411,0.0030372599278145
85.37776501005457,0.0029965165535527
85.40649238724504,0.0030489300891821
85.4352197644355,0.0029349369988194
85.46394714162597,0.0029266226446259
85.49267451881643,0.0028891504410767
85.52140189600689,0.0028421809243344
85.55012927319736,0.002964264439129
85.57885665038782,0.0029689608962913
85.60758402757827,0.0028527338813166
85.63631140476873,0.0029072661231832
85.6650387819592,0.0028875424529495
85.69376615914966,0.0028445036858542
85.72249353634012,0.0031505043378339
85.75122091353059,0.0026778424689025
85.77994829072105,0.0020420473146982
85.80867566791152,0.0048687428881503
85.83740304510198,0.0050076517909551
85.86613042229244,0.0062867969755798
85.8948577994829,0.0077006119140093
85.92358517667337,0.0086017355790518
85.95231255386382,0.0088381682034784
85.98103993105428,0.0085853062802043
86.00976730824475,0.0085305253054057
86.03849468543521,0.0088183762983869
86.06722206262567,0.0069691214310114
86.09594943981614,0.0065353196758157
86.1246768170066,0.0054794475026215
86.15340419419707,0.003584759237184
86.18213157138753,0.0031069081357299
86.210858948578,0.0035345696724804
86.23958632576846,0.0034114345224694
86.26831370295892,0.0033439364580631
86.29704108014937,0.0032925460751628
86.32576845733983,0.0032156290069112
86.3544958345303,0.0032057796223735
86.38322321172076,0.003420072592727
86.41195058891122,0.0033869648028445
86.44067796610169,0.0027633673004791
86.46940534329215,0.0029643806889805
86.49813272048262,0.0029133229756914
86.52686009767308,0.0027907570289537
86.55558747486354,0.002869043760031
86.584314852054,0.0030763457135208
86.61304222924447,0.0027653663750397
86.64176960643492,0.0028430329064361
86.67049698362538,0.0029526974745931
86.69922436081585,0.0029778176928818
86.72795173800631,0.0030070197059502
86.75667911519677,0.0030135747891732
86.78540649238724,0.0029131535358285
86.8141338695777,0.0029152165152949
86.84286124676817,0.002990370212803
86.87158862395863,0.0030469080283562
86.9003160011491,0.0030802983934461
86.92904337833956,0.0029493614663243
86.95777075553002,0.0030364521771139
86.98649813272047,0.0030616262935699
87.01522550991093,0.0032322174713995
87.0439528871014,0.0031511620589665
87.07268026429186,0.0030407453303871
87.10140764148233,0.0031279157888656
87.13013501867279,0.0031712129084518
87.15886239586325,0.0029622073344014
87.18758977305372,0.0030906137693339
87.21631715024418,0.0030723376047114
87.24504452743464,0.003045696353387
87.27377190462511,0.0029176548816597
87.30249928181557,0.0027867212473787
87.33122665900602,0.0028954422355416
87.35995403619648,0.0029268394356344
87.38868141338695,0.0029119358468466
87.41740879057741,0.0028754017650698
87.44613616776788,0.0028485031759104
87.47486354495834,0.0029270532877255
87.5035909221488,0.0029429611531179
87.53231829933927,0.0029820190570011
87.56104567652973,0.0030157334629574
87.5897730537202,0.0030078619715069
87.61850043091066,0.0030243122464664
87.64722780810112,0.0029404721303477
87.67595518529157,0.0032156459503056
87.70468256248203,0.0031346588563015
87.7334099396725,0.0031217522235582
87.76213731686296,0.0030362247494146
87.79086469405343,0.0031437736383373
87.81959207124389,0.0032504312855457
87.84831944843435,0.0031622952676722
87.87704682562482,0.0031352449080037
87.90577420281528,0.0029550272256951
87.93450158000574,0.0032252189561481
87.96322895719621,0.003126032515218
87.99195633438667,0.0029547629615336
88.02068371157712,0.0029589193017444
88.04941108876758,0.0030228463521072
88.07813846595805,0.0030602944508904
88.10686584314851,0.0030910866640603
88.13559322033898,0.0031451532837798
88.16432059752944,0.003085844923116
88.1930479747199,0.0031052821549204
88.22177535191037,0.0031288501548769
88.25050272910083,0.0030165527713024
88.2792301062913,0.0030676255352452
88.30795748348176,0.0030054472176848
88.33668486067221,0.0031660075470951
88.36541223786267,0.0031274801272689
88.39413961505313,0.0027692153663876
88.4228669922436,0.0032006118613585
88.45159436943406,0.0030376701084971
88.48032174662453,0.0033340888312896
88.50904912381499,0.0032409185728862
88.53777650100545,0.0031411486058156
88.56650387819592,0.0030812109573303
88.59523125538638,0.0031595965594819
88.62395863257684,0.0032513190753121
88.65268600976731,0.0031108998196072
88.68141338695776,0.0031715127956234
88.71014076414822,0.0033211900338503
88.73886814133868,0.0029674245107546
88.76759551852915,0.0029358564153736
88.79632289571961,0.0031490249503124
88.82505027291008,0.0030351870675953
88.85377765010054,0.0028731005521098
88.882505027291,0.0029333509602527
88.91123240448147,0.0029540778711371
88.93995978167193,0.0028025625850816
88.9686871588624,0.0028764340513667
88.99741453605286,0.0030360006299233
89.02614191324331,0.0028768513872893
89.05486929043377,0.0028749169675883
89.08359666762424,0.003200647840133
89.1123240448147,0.0028540375618968
89.14105142200516,0.0029307218441259
89.16977879919563,0.0031896020184369
89.19850617638609,0.0030592939561323
89.22723355357655,0.0030315073149187
89.25596093076702,0.0029672107041949
89.28468830795748,0.0029470970443306
89.31341568514794,0.0029947467025019
89.34214306233841,0.0031337701385349
89.37087043952886,0.0031034898233783
89.39959781671932,0.0031039258849613
89.42832519390979,0.003159622904726
89.45705257110025,0.0031379610035902
89.48577994829071,0.0030994286400902
89.51450732548118,0.0031817219691205
89.54323470267164,0.0030487174125508
89.5719620798621,0.0029095445312255
89.60068945705257,0.0028912791701942
89.62941683424303,0.0030663696627862
89.6581442114335,0.0029527528775813
89.68687158862396,0.0029334352300628
89.71559896581441,0.0042139474989612
89.74432634300487,0.0050884506592007
89.77305372019534,0.0049669430047948
89.8017810973858,0.0066590621897681
89.83050847457626,0.0069681692864152
89.85923585176673,0.006947734486509
89.88796322895719,0.0070073832326423
89.91669060614765,0.0069173831068005
89.94541798333812,0.0065205174302372
89.97414536052858,0.0057110455140406
90.00287273771904,0.0054933051642205
90.03160011490951,0.0050116844645575
90.06032749209996,0.0036029318827743
90.08905486929042,0.003021613387949
90.11778224648089,0.0031397028180056
90.14650962367136,0.0031187747262878
90.1752370008618,0.0030890863628307
90.20396437805228,0.0031652866118648
90.23269175524274,0.0031773392334209
90.2614191324332,0.0029929345113629
90.29014650962368,0.0030886887321309
90.31887388681412,0.0021011541001
90.3476012640046,0.0039870991551917
90.37632864119506,0.0044370448869322
90.40505601838552,0.0005769936066257
90.43378339557596,0.003833580114964
90.46251077276644,0.003327888115675
90.4912381499569,0.0029096854737696
90.51996552714736,0.0030824579306353
90.54869290433784,0.0032067266998572
90.57742028152828,0.0031533316460458
90.60614765871875,0.0030016720010644
90.63487503590922,0.0030817234244137
90.66360241309968,0.0029835469760137
90.69232979029016,0.0029725187402084
90.7210571674806,0.0030371769599037
90.74978454467106,0.002972813183875
90.77851192186152,0.002883526696889
90.807239299052,0.0030541430658833
90.83596667624244,0.0029384294997094
90.86469405343291,0.0029092931053609
90.89342143062338,0.0029336422444056
90.92214880781384,0.0029373001882662
90.9508761850043,0.00302624106388
90.97960356219475,0.0031940161388435
91.00833093938525,0.0031636942587284
91.0370583165757,0.0028633623001792
91.06578569376616,0.0035051448426331
91.0945130709566,0.0033662250141857
91.12324044814709,0.0032817731435457
91.15196782533754,0.0033693601717933
91.180695202528,0.0032043609028517
91.20942257971846,0.0033313013620297
91.23814995690891,0.0032981520647085
91.2668773340994,0.0031694051456139
91.29560471128984,0.0030678568195945
91.32433208848032,0.0030046120930988
91.35305946567078,0.0029079788479807
91.38178684286125,0.0030627248765124
91.41051422005172,0.0029983282589056
91.43924159724216,0.0029528085558803
91.46796897443262,0.0029408487052974
91.49669635162309,0.0027428916334117
91.52542372881356,0.0030283242789105
91.554151106004,0.0030542686611228
91.58287848319448,0.003146788375569
91.61160586038494,0.0030963781932767
91.6403332375754,0.0029208485677905
91.66906061476588,0.0034743998123456
91.69778799195632,0.0033184104364458
91.7265153691468,0.003315139490004
91.75524274633726,0.0033766872098029
91.78397012352772,0.0032467498163316
91.81269750071816,0.0031868001158422
91.84142487790864,0.0031759488509546
91.8701522550991,0.0031215630303028
91.89887963228956,0.003175489337977
91.92760700948004,0.003114691151786
91.95633438667048,0.0026192538396486
91.98506176386095,0.0032873194057568
92.01378914105142,0.0031739097928452
92.04251651824188,0.0029926427253225
92.07124389543236,0.0030812776071976
92.0999712726228,0.0031522838130566
92.12869864981326,0.0030971813753956
92.15742602700372,0.0031039469932975
92.1861534041942,0.0031661979790442
92.21488078138464,0.0030936513253507
92.24360815857511,0.0031147530021696
92.27233553576558,0.0030240095659324
92.30106291295604,0.0030889642351938
92.3297902901465,0.0031979534809427
92.35851766733695,0.0032009815001259
92.38724504452745,0.0032174096179784
92.4159724217179,0.0031900235038771
92.44469979890836,0.0030572721733942
92.4734271760988,0.0031444194083644
92.50215455328927,0.0033136229856386
92.53088193047974,0.003163994184812
92.5596093076702,0.0028863486712519
92.58833668486066,0.003289466937089
92.61706406205111,0.0030633342616216
92.6457914392416,0.00312769620021
92.67451881643206,0.0033517085397706
92.70324619362252,0.0030776681176538
92.73197357081298,0.0027757090811127
92.76070094800345,0.0031005155162291
92.78942832519392,0.0030666822287891
92.81815570238436,0.0033437716260679
92.84688307957482,0.0027858297745226
92.87561045676529,0.0029077504652224
92.90433783395576,0.0031475693359689
92.9330652111462,0.0030532928669419
92.96179258833668,0.0029745073542631
