timestamp,rms
0.0,0.002088897121198
0.0034527778625488,0.0020122316963711
0.0450649261474609,0.002075013116227
0.0906445980072021,0.0020225102217477
0.1332213878631591,0.0020606801466896
0.136880874633789,0.0021020998256578
0.1856594085693643,0.0021531335292876
0.2276637554168701,0.0021435866139794
0.2312884330749511,0.0021644092899118
0.2826929092407226,0.0021725943057796
0.3222546577453613,0.0021253187266744
0.3682947158813476,0.0021204880283316
0.3696682453155517,0.0020758276028209
0.4074406623840332,0.0020313503195499
0.4132707118988037,0.0020738994672399
0.4527733325958252,0.0020076060313781
0.496955394744873,0.0019613526744477
0.5414819717407227,0.0019794258225566
0.5442306995391846,0.001998660915104
0.5878787040710449,0.0021072668357052
0.6344294548034668,0.0021584133237197
0.6758027076721191,0.0022717636719421
0.6790587902069092,0.0022695551243073
0.7277126312255859,0.0023940739162454
0.7712001800537109,0.0023983066403529
0.7717714309692383,0.0024429994279119
0.819887638092041,0.0024185671970672
0.8412678241729736,0.002390611632253
0.8700528144836426,0.0023779445485552
0.9134502410888672,0.0023298055083115
0.9171013832092284,0.0022527844451995
0.9554705619812012,0.0022982723211333
0.9593234062194824,0.0022553342303387
0.9971902370452596,0.0022603503883546
1.0410337448119833,0.0022576814825783
1.0504555702209473,0.0022892322872295
1.0884647369384766,0.0022024737100455
1.0915338993072794,0.0022614220520221
1.138643741607666,0.0023429974466472
1.1748414039611816,0.0022664993195193
1.178988695144625,0.002333647781562
1.2190775871276855,0.0023291040328654
1.2216894626617432,0.0023188966438315
1.2654314041137695,0.0023118635841589
1.2708868980407717,0.0023173896197217
1.311722993850708,0.0022811446702316
1.3557415008544638,0.0022798351371497
1.3582448959350586,0.0022447663232349
1.4085102081298828,0.0021644092899118
1.4143917560577393,0.0021850077536271
1.4574673175811768,0.0021516937175299
1.5016376972198202,0.0021856781358761
1.5092966556549072,0.0022272019434478
1.543568134307861,0.0022292755239068
1.556216955184965,0.002323727102185
1.5925307273864746,0.0023467460911684
1.6358046531677246,0.0023456173224323
1.6404423713683798,0.0024609927249556
1.6814122200012207,0.0024455582552903
1.6838603019714355,0.0024229664365565
1.7297379970550253,0.0024214078322635
1.7313385009765625,0.0024290980690221
1.7754170894622805,0.0023587447181079
1.8298373222351072,0.0023433821989862
1.8685429096221924,0.002272185285173
1.87650465965271,0.002272210083515
1.919766902923584,0.0022985174780266
1.965585708618164,0.0022560586431176
1.973572015762301,0.0023417706266825
2.0096821784973145,0.0022998898737003
2.052490711212158,0.0023231693213377
2.0551064014434814,0.0023285233416513
2.099780559539795,0.0023440313253522
2.145694255828886,0.0023615141515128
2.1829962730407715,0.0023614902909656
2.189817428588867,0.0023693036640947
2.2342886924743652,0.0023372185610343
2.2790911197662354,0.0023883950238651
2.2837817668914795,0.0023815198907566
2.320922374725342,0.0023382308970266
2.3255112171173096,0.0023288137053578
2.371259927749634,0.0023412652786708
2.410704612731905,0.0022941743291414
2.4151129722595215,0.0023687328277789
2.456235647201538,0.0023744824760968
2.462716817855835,0.0023071792486493
2.5114378929138184,0.0024087857361198
2.5523979663848593,0.0024700884991426
2.560488224029541,0.0024359545759793
2.59685254096982,0.0024522538571634
2.599058866500883,0.0024786735630223
2.6428425312042236,0.0024656133665586
2.6832797527313232,0.002509332116655
2.687143087387085,0.0024273344897559
2.7275922298431396,0.0024250120366908
2.7293827533721924,0.002389786539587
2.7727556228637695,0.0024002089309645
2.8154001235961914,0.0023580040601348
2.8227236270904825,0.0023972961690044
2.860255479812622,0.0023782288783149
2.8695342540740683,0.002376214142843
2.917532444000244,0.0023331648246484
2.9595038890838623,0.0023241877767021
2.96413516998291,0.0024029305763745
3.0074095726013184,0.0023895743268531
3.0485265254974365,0.0024123620838384
3.050655603408785,0.0024050166472941
3.0970368385315226,0.0023710391131419
3.14967679977417,0.0024065624535473
3.1558713912963867,0.0023386887145902
3.187101364135742,0.002276471379257
3.191801071166992,0.0023292249919798
3.238603353500366,0.0022438876029021
3.2792649269104004,0.0022441889172049
3.284752368927002,0.002253834706073
3.324547529220581,0.002239815892482
3.3247323036193848,0.0022727555785832
3.367066383361845,0.0022608239768007
3.3752932548523233,0.0022647584026639
3.425306797027588,0.0022146179208756
3.4645395278930664,0.002192961733783
3.4676702022552774,0.0021619347109814
3.5127711296081543,0.0022502317708467
3.5183942317962646,0.0021329933887466
3.5589990615844727,0.0020847659537565
3.60205340385437,0.0022280366651895
3.647042989730835,0.0022738709563561
3.650939702987671,0.0023468661409989
3.691023111343384,0.0022796374064349
3.7004930973053263,0.0023108884639754
3.7444584369659424,0.0023343720295849
3.79041051864624,0.0023347582033346
3.79332971572876,0.0023810466439481
3.832240104675265,0.0023371221252131
3.840774774551392,0.0022912005461209
3.8824102878570272,0.002302803498815
3.924095392227173,0.0023634698966535
3.926840305328369,0.0022677917068934
3.9698503017425537,0.0023058600647012
3.9735324382781982,0.0023512557472324
4.012587308883667,0.0022786732234927
4.06266450881958,0.0023357474821424
4.106135606765747,0.0022878288697077
4.107410907745361,0.0023200626998776
4.147701025009155,0.0022987135847162
4.1931657791137695,0.0023471302290125
4.201823472976685,0.0024056257198489
4.238482713699341,0.002376878009033
4.241483211517362,0.0023959325325698
4.282666921615601,0.0024005375691438
4.330547094345121,0.0023630645702956
4.372992992401123,0.002425104977517
4.37542462348938,0.0024160963927051
4.422781229019165,0.002380454953132
4.471966743469238,0.0023789869248719
4.477915525436401,0.0023554697280426
4.517798423767118,0.0024136464041831
4.5245361328125,0.0023932029287198
4.564630746841431,0.0023652096261735
4.567003488540621,0.0023951092729048
4.612493991851778,0.002393226473091
4.655791521072388,0.0023283539461002
4.656671524047823,0.0039297805454344
4.69878077507019,0.0039635884339493
4.704029083251953,0.0039718819545131
4.744834899902344,0.003978133240747
4.7517478466033936,0.003971087436236
4.797172546386719,0.0039734988758321
4.841983318328886,0.0039897732777024
4.886600971221924,0.0028029717608624
4.890326023101778,0.0025354682077119
4.932377099990845,0.0023215922596385
4.976431608200073,0.002357382683693
4.978964328765869,0.0023652096261735
5.02310585975647,0.0023053712864897
5.0273497104644775,0.0023670194928458
5.069058179855347,0.00235597202925
5.081810712814303,0.0022969234904982
5.124512910842867,0.0023377488869417
5.1735923290252686,0.0023527889771533
5.216639518737793,0.0023808809853418
5.2647190093994425,0.0023480183070747
5.314271926879883,0.0023878051539558
5.347301721572876,0.0023555893332833
5.349015712738037,0.0024164695061955
5.392574787139921,0.0023641135074472
5.4035797119140625,0.0023578845773826
5.448539733886719,0.0023828681285156
5.494035243988037,0.0023837901676217
5.536277294158964,0.0024154666329998
5.537222146987915,0.0024350985683995
5.581716775894165,0.0024237569867214
5.623048305511475,0.002436509663336
5.627925395965576,0.0024280772055721
5.672448873519926,0.0024174719633555
5.676845073699951,0.0024180545962355
5.719284296035767,0.002401218176576
5.767120122909546,0.0024819676035895
5.770464181900024,0.0024173321105686
5.8128097057342245,0.0023784894840693
5.813469648361206,0.0024278451312867
5.855065107345581,0.0024002558820307
5.861878395080566,0.0023760481473137
5.905127048492432,0.0024430224923747
5.947795629501343,0.0024555603922005
5.9595818519592285,0.002418171105966
5.9948084354400635,0.0025018659915003
5.999854803085299,0.0024992971779629
6.040103435516357,0.0024652476909678
6.084621429443359,0.0024665501628081
6.1287853717803955,0.0024750109056838
6.130285739898682,0.002488180298174
6.172903299331665,0.0024554915514683
6.221993446350126,0.0024325982288476
6.260164260864286,0.0024254767052083
6.267192125320435,0.0024601454294149
6.3080151081085205,0.0024053212028501
6.358327627181978,0.0023553261937365
6.359097242355347,0.0023935089874808
6.39967942237854,0.0023947563606962
6.402924299240112,0.0023763089922251
6.443217754363985,0.0024266844269457
6.4882121086120605,0.002390116610833
6.490395307540865,0.0023630168802709
6.533384561538725,0.0024145800262678
6.5357441902160645,0.0024005375691438
6.575986385345459,0.0023759770028224
6.619831800460787,0.0024173321105686
6.628990411758423,0.0024383590418928
6.663436651229858,0.0023594851435835
6.673344135284424,0.0024330151305456
6.717846632003784,0.0024759441462904
6.761399507522583,0.0025208027944765
6.80151891708374,0.0024781506576883
6.803419828414917,0.0024773092305539
6.8473851680755615,0.0024859373569398
6.8905980587005615,0.0024485056553456
6.8944535255431845,0.0024772182483393
6.936932802200317,0.002466435938413
6.941771507263184,0.0024085751973518
6.983031749725342,0.0024634413720733
7.031005620956421,0.0024485056553456
7.034360647201538,0.0024256393181597
7.075982093811035,0.0025199085280651
7.079895734786987,0.002492004492925
7.1206347942352295,0.0024952809352857
7.169296741485596,0.0025959283805555
7.169975519180326,0.002568038531935
7.21504020690918,0.0025211380626019
7.258034706115723,0.0024889954120416
7.298755407333374,0.0024045245914481
7.301225185394259,0.0023882062813456
7.348793983459473,0.0023174139343381
7.351513385772705,0.0022735983589857
7.393965005874634,0.002220639747461
7.403363466262846,0.0022323822832073
7.445729017257662,0.0022755553788389
7.489691734313965,0.0022774364943794
7.491418600082397,0.0022903888442825
7.532764911651583,0.0024007253421905
7.535463333129883,0.0024080370702034
7.574710369110107,0.0024223384629263
7.618818283081026,0.0024895839394165
7.624065637588501,0.0024508058452931
7.663675785064726,0.0024759896612246
7.673475503921509,0.0024674409316138
7.716872930526705,0.0024853706375233
7.763806104660034,0.0024328530105967
7.7690141201019,0.002444267650169
7.809307813644381,0.0023944975253522
7.815016269683838,0.0023827971876522
7.850146055221558,0.0024521389668246
7.899170160293579,0.0024218964579499
7.942344665527344,0.0023910829859451
7.946059226989746,0.0023917191660776
7.991601467132568,0.0024430916844565
8.037775754928589,0.0024002793572195
8.041920900344877,0.0024439448923971
8.07886028289795,0.002480741368594
8.088001251220703,0.0024494029863651
8.12852430343628,0.0024357463856073
8.167706727981567,0.0025174252748741
8.181086301803589,0.0024657504809239
8.212575912475586,0.0024357926516722
8.221202373504639,0.0024859373569398
8.263353109359741,0.0024184507064186
8.312736511230469,0.0023813069413315
8.350040674209595,0.0023976487073762
8.355245113372803,0.0023907530481183
8.39650273323059,0.0023753366065115
8.406738519668579,0.0023546562512867
8.447851896285982,0.0023603924450556
8.489381313323975,0.0024412458911404
8.492520093917818,0.0023835065012713
8.535786867141724,0.0024822173179326
8.541605472564726,0.0039966169619724
8.58773136138916,0.0062147663268163
8.635621786117554,0.0070683864310211
8.639151573181152,0.008044802417952
8.676419258117676,0.0086361851695513
8.678506135940552,0.0092132752572622
8.72781491279602,0.0094434375611384
8.769505500793429,0.0097880029494208
8.779812097549438,0.0101883687285437
8.822431325912476,0.00935555592638
8.823137760162354,0.0091654292760745
8.861141920089722,0.0088751530086996
8.86755919456482,0.0088235010904996
8.913703441619873,0.0085642071328519
8.952219486236572,0.0089691133555064
8.965863704681396,0.0089958549704426
8.996146440505981,0.0086143723383848
9.009191513061523,0.0087807583494038
9.04827094078064,0.0086070367376786
9.100330114364624,0.0083276570190013
9.132247924804716,0.0081510951044195
9.140897989273071,0.0081367384405378
9.18419051170352,0.0081192340424682
9.201330661773682,0.0080033573630199
9.239608764648438,0.0078639832408571
9.283556938171388,0.0077803799388143
9.29667592048648,0.0077531888190839
9.331039190292358,0.0074868513701736
9.3336443901062,0.0074510620460699
9.372303247451782,0.0071259070252836
9.420427322387669,0.0065944888644204
9.425817489624023,0.0061505330594917
9.467243909835844,0.005787562550552
9.475833177566557,0.0053186230860252
9.505838871002195,0.0047273450675354
9.51790690422058,0.0042354586673556
9.55915641784668,0.0035995894876524
9.596369504928589,0.0024508288362906
9.60848832130432,0.0021901849855681
9.64243507385254,0.0022319026597134
9.65558671951294,0.0021789908913882
9.69751000404358,0.0021730870192995
9.737506866455078,0.0020769130880849
9.74646019935608,0.002011055263814
9.785332441329956,0.0020665234258717
9.78823471069336,0.0020483935149567
9.83469557762146,0.0020586283435004
9.875422716140749,0.0021096185774397
9.8831307888031,0.0021254512832117
9.917169094085663,0.0021606572413238
9.930039167404177,0.002262269054594
9.96628189086914,0.0023767357676025
9.980663299560549,0.0023564263999858
10.019513607025146,0.002349409753886
10.064096689224243,0.0023519985302893
10.065846681594875,0.0023368327938714
10.104405164718628,0.0024248958556487
10.11709451675415,0.0023702547524513
10.153169870376589,0.002319819819869
10.204437017440796,0.0023509441877201
10.24891209602356,0.0024420074499355
10.283735752105711,0.0024200112152445
10.324482917785645,0.0023881826874818
10.336662054061918,0.0024287268955971
10.370160102844238,0.0024493569773867
10.376723766326904,0.002462572037882
10.42362952232358,0.0023902816293639
10.461525917053224,0.0023756686854068
10.472769260406466,0.0035850491813
10.507795333862305,0.0036117787012374
10.51639461517334,0.0035932912078515
10.55216670036316,0.0035851749162496
10.597198247909546,0.0035551404340038
10.642245292663574,0.0035607308660754
10.654984712600708,0.003621500533258
10.680299758911104,0.0036453980236231
10.693395614624023,0.0025606995689286
10.72807192802432,0.0025262063550973
10.731427192687988,0.0024471705545308
10.772209882736206,0.0025846821144302
10.818752765655518,0.0027105028004125
10.828378915786743,0.002741322928033
10.8638277053833,0.0027460464114805
10.86952829360962,0.0026831319357261
10.910887002944946,0.0026445285781413
10.960830688476562,0.0026213946209701
10.999762535095186,0.0025659751977101
11.004993438720703,0.0023966849796514
11.045068979263306,0.0023569524040388
11.092368364334106,0.0022768673734116
11.100013494491575,0.0023864597053861
11.14197278022766,0.0023838847155709
11.17901372909546,0.0024599392863718
11.199307441711426,0.0024579456789543
11.233509302139282,0.0025880589484407
11.279709339141846,0.0026616042063004
11.291709184646606,0.0027089224291729
11.33137631416318,0.0027340369249801
11.340280294418308,0.0027536075945329
11.374413251876833,0.0027118537030296
11.414899587631226,0.0026647144108101
11.43240761756897,0.0026788865043979
11.46099615097046,0.0026051370178923
11.467280864715576,0.0025842678763459
11.509814500808716,0.0025053994320897
11.513932943344116,0.0023795789807185
11.549076318740845,0.0040143699755585
11.592888832092283,0.0056591535885742
11.645010232925443,0.0069232715155358
11.656837701797484,0.0075017908105479
11.694032430648804,0.0077897167194591
11.700907707214355,0.0080613291659331
11.735605716705322,0.0085019045465683
11.743318796157835,0.0088503961805775
11.779197216033907,0.0092751491840556
11.792914628982544,0.0083016137237572
11.825921058654783,0.0077127776368978
11.86794662475586,0.0078377364328212
11.877852439880373,0.0077904111022848
11.915383100509644,0.0081214545093215
11.92117190361023,0.0082006198961583
11.962986707687378,0.0081012536520204
12.00122570991516,0.0083722286041208
12.009912252426147,0.0081860609943938
12.046365022659302,0.0080650748057153
12.0552077293396,0.008036084573125
12.09441590309143,0.0078043507639941
12.149438381195068,0.0071965408509136
12.181568622589111,0.0067649449623827
12.19256663322446,0.0063137022404001
12.233747720718384,0.0061943511020077
12.2857594490051,0.006278396311064
12.319825172424316,0.0064128515319725
12.32994341850278,0.0061378958376114
12.370440006256104,0.0059738297051119
12.379703521728516,0.0056055113013473
12.42189121246338,0.0056499959327029
12.470688581466677,0.0048178053883017
12.510557889938354,0.003513064963317
12.515969038009644,0.0027220779540009
12.557379484176636,0.0027682813061636
12.563841819763184,0.0027291894294013
12.609278917312622,0.0026996921157393
12.65341019630432,0.0027221814515221
12.665468454360962,0.0026508916892861
12.699760675430326,0.002639409965817
12.704097747802706,0.002670248786253
12.74763822555542,0.0025645694245122
12.78618884086606,0.0025691353749919
12.799231052398682,0.0025945171191153
12.834945440292358,0.0026997756006134
12.843549251556396,0.0027129754798098
12.88732123374939,0.0027565526739826
12.92581343650818,0.0027697667796064
12.93388533592224,0.002849939737785
12.974337100982666,0.0027885210190615
12.985339164733858,0.0043557055878674
13.017861604690552,0.0053432717228978
13.030656099319486,0.0059696308722772
13.072542428970308,0.0059341579281967
13.121886730194063,0.0059776296986634
13.130123853683472,0.0059748011492561
13.160323619842558,0.0059605153763817
13.17164444923398,0.0060043687720988
13.208213567733765,0.0053627346505231
13.224327087402344,0.0053495530666792
13.25690245628357,0.005317235060306
13.29792332649231,0.0058320111841857
13.313320875167818,0.0061100812557314
13.345815896987917,0.0065976581194065
13.351677656173706,0.0068264185145175
13.3925039768219,0.0071220551256493
13.438011646270752,0.0074043092692611
13.444012880325316,0.0066348238082421
13.479368925094604,0.0066561737601623
13.48875880241394,0.0061938780674527
13.5339093208313,0.006032390563364
13.5728049278259,0.0060960385647407
13.589526176452637,0.0062382136288638
13.621366500854464,0.0061809101281517
13.629842996597262,0.00599340730062
13.674577713012724,0.0061205391952679
13.694849014282228,0.0058955764570321
13.713723182678224,0.0059259768172482
13.754545927047758,0.0060054384858233
13.760856151580782,0.0059683942485892
13.7982470989227,0.0057888183366093
13.812822103500366,0.0057485265214573
13.856911420822144,0.0060602920853735
13.894182920455904,0.0056998498186893
13.909660577774076,0.0056712579991421
13.945108652114868,0.0058648071602147
13.956210136413574,0.0058023712766702
13.991328716278076,0.0053175741534658
14.0306324958801,0.0050807829355056
14.0408034324646,0.0046989873882792
14.072120904922484,0.0041514109004122
14.079493522644045,0.0037972528975068
14.123810052871704,0.0035891804099427
14.168551206588743,0.0024134362894409
14.211616277694702,0.0023987295019722
14.215086936950684,0.002341000529033
14.260555505752563,0.0023323194094087
14.305931568145752,0.002324381717605
14.308959245681764,0.0023715856353658
14.353313446044922,0.0022562084925843
14.388622045516968,0.0022827496757457
14.397608518600464,0.0023131306258473
14.439432621002195,0.0023504168390779
14.486367225646973,0.0023842865025272
14.493860721588163,0.0023700407908478
14.532967805862429,0.0023040266117574
14.536056756973268,0.0023347582033346
14.582058906555176,0.0022977819288772
14.632432222366305,0.0021770247129935
14.63756537437439,0.0021850335413629
14.673036813735962,0.0020174054356891
14.67657017707822,0.0019295509536695
14.718617916107178,0.0019263068051498
14.76035451889038,0.0017776494620843
14.776706218719482,0.0017967553682271
14.808904647827148,0.0017786634873154
14.817872762680082,0.0017263847247523
14.858073711395264,0.0017695481838698
14.87606930732727,0.001796096681799
14.905858755111666,0.0018863745727559
14.94854497909546,0.0023346133956642
14.964337348937988,0.0024916426905213
14.997210502624512,0.0025369789491285
15.0062096118927,0.002605720937802
15.040208101272585,0.0026792650831743
15.04971718788147,0.0041510172672988
15.092086791992188,0.0043110534431879
15.134737014770508,0.00435566677878
15.144967317581177,0.00589709589735
15.188800811767578,0.0069951138405865
15.23555874824524,0.0071909326025137
15.281681060791044,0.0074106304744578
15.289318799972564,0.0071926562727155
15.32109832763672,0.0075218112338946
15.327601909637425,0.0078609016162339
15.366882562637358,0.0071998363988361
15.370497703552246,0.0068275657541883
15.418541193008425,0.0067786493116402
15.457667350769045,0.0066909516162512
15.471397399902344,0.0069365412290207
15.503080368041992,0.0069537977561864
15.51393437385559,0.0065685908408346
15.557448387145996,0.006741942186457
15.599192142486572,0.0066628411042387
15.60527467727664,0.0067532823262951
15.647799968719482,0.0064763798165911
15.650283575057983,0.0064835188646398
15.691035985946629,0.0062888700266807
15.734240055084229,0.0061893824360737
15.77626657485962,0.0059252351132975
15.782928705215426,0.0058571256554277
15.82056164741516,0.0057210152464508
15.868156909942629,0.0056173802285249
15.87110161781311,0.0054430379987469
15.91092610359192,0.0051912598169432
15.9185528755188,0.0052082296859895
15.961655855178831,0.0052235697746199
16.003839015960722,0.0051428634887906
16.010079383850126,0.0048350255044554
16.050740242004395,0.0050141937223638
16.05746817588806,0.0049515924339512
16.09556841850278,0.004961641730315
16.11722111701968,0.0050543640105851
16.148273706436157,0.005186460061833
16.201536893844604,0.005532602262963
16.237796306610107,0.0053051513478406
16.24646258354187,0.0056991577809944
16.284713983535767,0.0052325907183004
16.288726806640625,0.0051273808496415
16.339285850524902,0.0047139645742167
16.392930746078463,0.0037941800193457
16.437883615493774,0.0036763198899359
16.43871521949768,0.0029987665591345
16.479596376419067,0.0024541602510911
16.488560676574707,0.0017831246676742
16.5226788520813,0.0018191636701074
16.575334548950195,0.001816653045443
16.62647747993472,0.0038349198963226
16.661487102508545,0.0041022986300599
16.671663761138916,0.0049527871392156
16.71058678627014,0.0049153182164768
16.752253293991117,0.0049489630671734
16.762052059173584,0.0049634697852183
16.79685378074646,0.0049863373758687
16.80977463722232,0.0055939697477476
16.850820302963285,0.0055977457596968
16.900546550750704,0.0047309909733126
16.941592931747437,0.0047418999886266
16.943366050720243,0.0047231356737254
16.989806413650513,0.0047177283145832
17.030839443206787,0.0046989514143897
17.04383683204651,0.0026343027973588
17.074041604995756,0.0023340582163669
17.08083486557007,0.0022328870387439
17.121859312057524,0.0022238345858682
17.127842426300077,0.002168674549913
17.168814659118624,0.0021500695009414
17.216451168060303,0.0022201068274118
17.22402000427246,0.0022255062422661
17.256904363632202,0.0021573688458827
17.265992164611845,0.0021884091074418
17.303975343704224,0.0020703916398852
17.350800037384033,0.0021884091074418
17.396501302719116,0.0021394557010469
17.43633270263672,0.0022254809235073
17.43686032295227,0.0021970433376852
17.484360694885282,0.0021595877574642
17.49239492416382,0.0022328113326877
17.52641224861142,0.002224467936849
17.5382239818573,0.0022404950247483
17.585052728652954,0.0022493551856156
17.633951902389526,0.0021922164708778
17.63871455192566,0.0022075589333238
17.681790828704834,0.0022219080902538
17.71755814552307,0.002202499293283
17.72999119758606,0.0044093839034582
17.766573429107666,0.0064304969746177
17.779377698898315,0.0064683792583024
17.825020790100126,0.0064988573019224
17.860857248306274,0.0072027080097507
17.871651887893677,0.0076327086912778
17.907546281814575,0.008240908863812
17.9135525226593,0.0085293711090303
17.95863056182864,0.0079752450060332
17.99355411529544,0.0073012529035624
18.00387215614319,0.006725080453214
18.045173645019503,0.0070729128815194
18.05232763290408,0.0069678018727673
18.09071135520935,0.0066604643017649
18.13517475128174,0.0063030284215626
18.154602766036987,0.0061790410138474
18.174405813217163,0.0063323626007945
18.19099497795102,0.0063167626076069
18.22463870048523,0.0066615301614858
18.273963928222628,0.0063687496442403
18.317111015319824,0.006121017897481
18.321998596191406,0.0062415547633163
18.35901165008542,0.0061442176975294
18.411186456680326,0.0054471669104761
18.45217275619507,0.0055141273040097
18.46184539794922,0.0055488329024467
18.497678995132446,0.0055037251625777
18.54172444343567,0.005725544030624
18.54908084869382,0.0055914912988343
18.58446669578552,0.0055781835983744
18.593032121658325,0.0057251602074754
18.62873101234436,0.0054906255025926
18.69059729576111,0.0047242211737222
18.723456621170044,0.0046088846445478
18.729658126831023,0.0037568544886842
18.76467776298523,0.0036387299796483
18.77774381637576,0.0029343196707792
18.81649351119995,0.0021457147393708
18.86984372138977,0.0020859008144466
18.87792706489563,0.0020492185818589
18.911515712738037,0.0019506075076797
18.91569685935974,0.0018934108608037
18.956907987594604,0.0017384190524705
19.000343799591064,0.0017231504763848
19.0440833568573,0.0016495746548517
19.047804594039917,0.0016663296261399
19.084816694259644,0.0016964900667326
19.09586191177368,0.001716072776606
19.13232445716858,0.0017833458539394
19.1414053440094,0.0018226603690266
19.17888331413272,0.0018152567535582
19.187291860580444,0.0019927600252418
19.221965312957764,0.0019877489212422
19.234164714813232,0.0019943145837823
19.2764630317688,0.0019595994518917
19.31912064552307,0.0018860459698965
19.32980251312256,0.0019172468868512
19.374006748199463,0.0018469214013112
19.411427974700956,0.0018027352290738
19.454092264175443,0.001864774094456
19.46427822113037,0.0018743883376948
19.50167989730835,0.0019422412919108
19.50521469116211,0.0020040383994463
19.54555058479312,0.0020672594886427
19.606687307357788,0.0021889497446075
19.64191746711731,0.0022378527971038
19.64490437507632,0.0022169574499213
19.69037413597107,0.0022584051424457
19.70146083831787,0.0023113029403207
19.741118669509916,0.0024007488127887
19.790159225463867,0.002384853615933
19.790994882583615,0.0023239210815332
19.83767151832581,0.0022801069888844
19.84014868736267,0.002124072290868
19.875998497009277,0.0021403246438971
19.88669776916504,0.0020308232184987
19.92521572113037,0.0019439811841274
19.96998190879825,0.0019368376933717
19.978740692138672,0.0017816704748127
20.01833176612854,0.0018026101997552
20.0267972946167,0.0019238774258003
20.06537413597107,0.0020133794555862
20.109054803848267,0.0020706637769596
20.114428758621187,0.0021587526702077
20.1514995098114,0.0021463973940045
20.158873319625823,0.002147552161345
20.1945161819458,0.0022116390753012
20.23700213432312,0.0021313813583515
20.251151084899902,0.0021122344809232
20.287689924240112,0.0020977529251053
20.291704893112183,0.0020253777486062
20.32599401473999,0.0019812468218585
20.372092723846436,0.0020340114783148
20.373852729797363,0.0019793404221083
20.41603231430057,0.0019611515645836
20.42700791358948,0.0019032653309668
20.470744132995605,0.001898255442116
20.51292610168457,0.001968607569231
20.52105712890622,0.0020355345329424
20.561142206191988,0.0020824943770414
20.56216096878052,0.0022397404206298
20.60536742210388,0.0044161004487704
20.645092964172363,0.0057060941307565
20.66684365272522,0.0066849613666344
20.692347049713103,0.0073382183128988
20.70307374000552,0.0076359930958809
20.741703033447266,0.0078173502212411
20.74400544166568,0.0081733653128657
20.790380716323824,0.0085632596570827
20.835277318954468,0.0079533339693303
20.841986894607544,0.0076610556548975
20.880072593688965,0.0070836357002959
20.883403778076172,0.0067058912259938
20.9290030002594,0.0067267224576643
20.978392362594604,0.006898011605224
21.020968437194824,0.006360976903259
21.06255602836606,0.0065348518842434
21.07960844039917,0.0065809832390634
21.116650581359863,0.0064076214117327
21.161168575286865,0.0064888093816783
21.173877000808716,0.0064294629255508
21.2135009765625,0.0061486913671369
21.232999086380005,0.0059908871814611
21.2578706741333,0.0059591917628311
21.26590323448184,0.0055660083829015
21.298866987228394,0.0052168451345729
21.34755539894104,0.0047194598211514
21.349756240844695,0.0043220055080812
21.38480520248416,0.003880360807754
21.393571615219116,0.0034707716505056
21.43756341934204,0.0032929608457052
21.479628324508667,0.0023845700760894
21.48340892791748,0.0023948269472984
21.52189874649048,0.0022707961458046
21.533374309539795,0.0022113333257905
21.57253098487854,0.0021940406312562
21.621392726898193,0.0022078141631043
21.635096311569185,0.0021649038662718
21.66746306419373,0.0022023457894001
21.673462867736788,0.0022707713320214
21.715967893600464,0.0022771643238365
21.763548135757446,0.0024232687361904
21.766945123672485,0.0024903985938688
21.805216312408476,0.0025327999952309
21.81258845329282,0.002662387389057
21.84761667251587,0.0026974788251065
21.890244007110596,0.0027267107886756
21.901015043258667,0.0027580853240496
21.93266010284424,0.0026960371218557
21.93885803222656,0.0026284569448042
21.976752519607544,0.0025993989905889
21.98983144760132,0.0025316206394123
22.034156322479276,0.0024785826308887
22.085876941680908,0.0024363246482693
22.09170651435852,0.0023366640007109
22.129918098449707,0.0023378211947899
22.14193081855774,0.0023454251374813
22.177993297576904,0.0024076626499457
22.178252696990967,0.0024826258872243
22.220574617385864,0.0025205792576181
22.268741846084595,0.0025496294162197
22.269670724868774,0.0026146580469619
22.31144905090332,0.0026128687576072
22.31604290008542,0.0025884725798327
22.354868173599243,0.0027111055939768
22.373936176300077,0.0026452316127586
22.40498733520508,0.0025992255701477
22.448121070861845,0.0025725764225625
22.456152677535982,0.0025513084611276
22.49756383895874,0.0025161267442794
22.513585567474365,0.0024707271421131
22.549075365066557,0.0024260574157002
22.594420909881592,0.0024083880363291
22.602675199508667,0.0041456519912449
22.63289189338684,0.0042982516882731
22.65484619140622,0.0055235000254248
22.683236122131348,0.0056724501328183
22.72152853012088,0.006434797886076
22.73444652557376,0.0072752607179061
22.76983880996704,0.0077258801217738
22.77742052078247,0.0079613285421498
22.820700883865356,0.0080236853068778
22.832189321517944,0.0077158307878644
22.868862867355347,0.0079496136481983
22.881060123443604,0.0075432502096364
22.92049551010132,0.0074129415783503
22.96545100212097,0.0070507071064389
22.973806619644165,0.0067619124455109
23.013964891433716,0.0067311354526164
23.017812967300387,0.0066715459868823
23.06101655960083,0.0065779430075639
23.107603311538725,0.0064525754284973
23.11254072189331,0.0065129398748953
23.15096616744995,0.0063727297206767
23.16191792488098,0.0064800068445954
23.196561098098755,0.0065160536725405
23.204682111740112,0.0064164003096174
23.252699851989743,0.006387169789295
23.295380115509033,0.0062999613826275
23.30903387069702,0.0063368812826991
23.33679962158203,0.0063326918262579
23.350229501724243,0.0060052320646794
23.38321757316592,0.0061258856459494
23.428244590759277,0.0055412523178594
23.429874658584595,0.0050885179846619
23.470656633377075,0.0047129723581735
23.48703551292419,0.0042965209225161
23.51286029815674,0.0037488067366679
23.56249737739563,0.0032404555554331
23.572061777114868,0.0032368715377331
23.606801986694308,0.0022480521992567
23.618319988250704,0.0021564806419682
23.655926942825317,0.0022089623321783
23.7040114402771,0.0021758596909741
23.70597815513611,0.0021864771691551
23.74412751197815,0.0022686363313356
23.7493710517883,0.0022960892716096
23.786885499954224,0.0022936830607298
23.83227038383484,0.0023558046074142
23.837964057922363,0.0023555414919158
23.87999963760376,0.0023663052371562
23.881409883499146,0.0024198715092098
23.92228102684024,0.0024098147719777
23.96822929382324,0.0023505127294494
23.972378253936768,0.0023345409884606
24.008477210998564,0.0022235558542853
24.016714096069364,0.0021711154943208
24.05767560005188,0.0022315239367697
24.102742433547977,0.0021573166087165
24.113961458206177,0.0021356598130252
24.144661188125585,0.0022557339351234
24.153308629989624,0.0022818855822861
24.19263601303101,0.0023641611753507
24.236204862594604,0.0024478842334866
24.24373769760132,0.0024724369802023
24.283821344375585,0.0025629430380553
24.286195516586304,0.0026443581173588
24.33026242256165,0.0026121785837533
24.344767570495605,0.0026896341685088
24.385113716125517,0.0026729905970032
24.43114161491394,0.0026195669134128
24.445621490478516,0.0026797277179353
24.48030185699463,0.0044836927771508
24.4854097366333,0.0044678176387813
24.517199516296387,0.0044941740028457
24.531740427017183,0.0044856402450289
24.574910402297977,0.0044948635250404
24.61397171020508,0.0045222211485018
24.62556505203247,0.0045321408641008
24.6640841960907,0.0045101187844049
24.665292978286743,0.003164071720223
24.705862522125244,0.0027668357655705
24.762753009796143,0.0027944353026405
24.802615880966187,0.002730118339511
24.85208010673523,0.0029025594173297
24.85651731491086,0.0044455909991845
24.889935970306396,0.0044218511880078
24.948216676712036,0.0058656621745027
24.97820472717288,0.0067158492829301
24.987820386886597,0.0073477335220699
25.030391454696627,0.0077830083979232
25.073436498641968,0.0081199488215044
25.08242416381836,0.0075971837290797
25.115571022033663,0.0078610736457182
25.12359642982483,0.0081885385908209
25.16458296775818,0.0077387783983676
25.215049743652344,0.0073172644000532
25.22258257865909,0.0071377186601592
25.2566077709198,0.0069613618592568
25.264545202255277,0.0068441009073404
25.301138162612915,0.0067596538365669
25.311566829681396,0.0070702196738495
25.351044416427584,0.0067840668210929
25.397939920425443,0.0064908757681662
25.40804243087769,0.0069030987344822
25.441536903381348,0.0066860823136564
25.453678369522063,0.0066674315995657
25.487770557403564,0.0067740260495903
25.535200119018555,0.0068247344466534
25.545078992843628,0.0069430042650519
25.5789608955383,0.0066089559550423
25.58620309829712,0.0069182562326007
25.6287682056427,0.0067980227309609
25.67169690132144,0.0066267084364684
25.67994499206543,0.0062151833759414
25.71853184700012,0.0066671780635264
25.739667892456083,0.0064264123882032
25.76124882698059,0.0063425339918952
25.8008003234863,0.0063675108908523
25.843780279159542,0.0060731464599002
25.85321831703186,0.0061297568384386
25.895068168640165,0.0061794240003883
25.90342617034912,0.0061688558045703
25.932630300521826,0.0057816596262101
25.94313263893127,0.005772627987281
25.98564386367798,0.0056374860639167
25.99981570243835,0.0053551642022504
26.033003568649264,0.0050640424739016
26.087456703186035,0.0041859460437912
26.116546154022245,0.0037754812964821
26.124553442001343,0.003757559346473
26.16577386856079,0.0035041036628318
26.16981792449951,0.0029211362349157
26.219111919403076,0.0022444650864476
26.262548446655273,0.0022221616719406
26.27056694030759,0.0023055912495078
26.300658702850345,0.0024020393425153
26.310086727142306,0.0023708489889244
26.352760314941406,0.0023507524382652
26.407485961914062,0.0023237998463381
26.44445490837097,0.0023386164335649
26.452277660369873,0.0023451608574578
26.492369174957275,0.0022969480217613
26.50122570991516,0.002349673556014
26.54634499549863,0.0022899213702815
26.589638710021973,0.0024266147670302
26.628900051116943,0.002439005993096
26.635979890823364,0.0024517023344357
26.677544593811035,0.0025206910285252
26.687196254730225,0.0025249123405056
26.7297785282135,0.0025271652830338
26.772371768951444,0.0026020638749198
26.7843177318573,0.0026078608588828
26.82023882865909,0.003160953731606
26.82934331893918,0.0043709308814093
26.864008903503446,0.0043413485004912
26.90524935722351,0.0043572576679209
26.916080713272063,0.0043584213652437
26.949007511138916,0.0043372841440709
26.956435441970825,0.00434160807445
26.99446272850037,0.0043556279693468
27.037659883499146,0.0043595589022777
27.08707356452942,0.0026235647122541
27.090991020202637,0.0025840280239457
27.127058506011963,0.0025629210527922
27.128776788711548,0.0025844423004739
27.17672085762024,0.0024678519472356
27.21799397468567,0.0024267540848617
27.23562264442444,0.0023135447005047
27.278071880340576,0.0022698282072541
27.3185818195343,0.0022510829839279
27.33090090751648,0.0022524842807187
27.369182109832764,0.0023437668881643
27.4050509929657,0.0023557806890377
27.415340185165405,0.0029394423088371
27.466719388961792,0.0041271667512789
27.505208253860474,0.0057008679499782
27.51729917526248,0.0063103635887654
27.5576229095459,0.0064330550933435
27.563948154449463,0.0071043427994748
27.5994641780853,0.0077682398539818
27.610707759857178,0.0079401952259764
27.6486496925354,0.0081008224112861
27.69865894317627,0.0072630055855985
27.73276758193967,0.0070739006651155
27.737873077392575,0.0070208590739122
27.7821626663208,0.0068797716289345
27.830350160598755,0.0064168745024874
27.86619997024536,0.0064562332845587
27.87863230705264,0.0064805285520736
27.92049670219424,0.0063086757371469
27.96147871017456,0.0063217737678089
27.964792728424072,0.0060936995934109
28.0065279006958,0.005925339718196
28.01815891265872,0.0057324975996814
28.05893850326538,0.0058075934361428
28.103390216827393,0.0058348799827628
28.104721784591675,0.0055538470589105
28.14419937133792,0.0056208097102445
28.15113210678101,0.0052954240904638
28.19316077232358,0.0054077159838676
28.205650806427,0.0055534310765033
28.257949352264404,0.0055199794640468
28.29703998565674,0.0054906049778489
28.30388879775998,0.0056257196516881
28.340906620025635,0.005428162444644
28.352004289627075,0.0051584198142044
28.38650941848755,0.0048799521965384
28.43243455886838,0.0044324405124551
28.440073013305664,0.0040679675517121
28.47686004638672,0.003562898161062
28.478681325912476,0.0033512394567452
28.520368099212615,0.0028796590671699
28.536725759506226,0.0022302610624868
28.571571350097685,0.0021899019710551
28.621105432510376,0.0021030913759141
28.656090259552,0.0020197502180916
28.66449284553528,0.0020589567694128
28.70542359352112,0.0019264238062921
28.71746253967288,0.001949393886122
28.756181716918945,0.0018921605539813
28.809160709381104,0.0018629904746366
28.84467387199402,0.0020664961592526
28.852283716201782,0.0021180153411929
28.89240980148315,0.002112741271037
28.89832663536072,0.0021410090171481
28.94104480743408,0.0020922662036124
28.98413991928101,0.002116711365649
28.987284183502197,0.0021699992328208
29.024845361709595,0.0021155131290751
29.03597640991211,0.0020804911712339
29.081544876098633,0.0019809908449785
29.12574863433838,0.0020120636766903
29.12575912475586,0.0020711535335856
29.16782522201538,0.0021235416707521
29.178908109664917,0.0021295564433126
29.214468240737915,0.0022414756303107
29.25549340248108,0.0022697537333452
29.272701501846313,0.0022626924369817
29.30384659767151,0.0024114276030426
29.311200857162476,0.0024188467517346
29.350834369659424,0.0024608782426059
29.388274908065796,0.0023728920259376
29.394208192825317,0.0024149533740388
29.433759212493925,0.0023438630505936
29.441900730133028,0.0023091810128247
29.47920870780942,0.0022164236444954
29.523834705352783,0.0020809786149919
29.529374599456787,0.0019593118886864
29.56514811515808,0.0018909690169904
29.57985138893127,0.0019300473237223
29.61388802528384,0.001948902443492
29.656973838806152,0.0020043476581253
29.664896726608276,0.0020828460926164
29.700600624084473,0.0021699732664187
29.71580171585083,0.0022010661740522
29.765222549438477,0.002350344918732
29.80439496040344,0.0024264754411997
29.81005930900577,0.0024463645377356
29.85606026649475,0.0025642178607936
29.864063501358032,0.0024628923546
29.90130829811096,0.0029501957252829
29.90844130516052,0.0053218109949397
29.941436290740967,0.0054603811496568
29.984471082687374,0.0067832528091567
29.99419021606448,0.0073605365769609
30.032614946365356,0.0077054977892073
30.036362886428833,0.0080552667666865
30.08066463470459,0.0083632591790984
30.12729263305664,0.0085299722520879
30.145487785339355,0.0081169435498262
30.16485404968265,0.007891235298456
30.173431873321505,0.0076163911915518
30.211939811706543,0.0072118863557499
30.25888466835022,0.0066716135531707
30.267159700393677,0.0065903947689445
30.30122017860413,0.0065424352807771
30.31342625617984,0.0065202203732907
30.3558611869812,0.0063067194076158
30.4017307758331,0.0061266582407363
30.41229796409607,0.0060884637003399
30.44998335838318,0.0061068619544238
30.49077296257019,0.0060557065879234
30.49611735343936,0.0061266858316053
30.535342931747437,0.0060295783579204
30.5817449092865,0.0060553716082562
30.58868837356567,0.0056765809245613
30.624619722366305,0.005943977461169
30.63304591178894,0.0056074510064168
30.67363739013672,0.0057047213636282
30.713489055633545,0.0058827172068849
30.7293062210083,0.0058399186984852
30.7626025676727,0.0056090484978466
30.772297859191923,0.0056073002761851
30.807979106903076,0.0059078259523733
30.849461317062374,0.005556443708187
30.851009368896484,0.0058870833150881
30.89084243774414,0.0057970569346773
30.89354491233823,0.0053228167492007
30.936192989349365,0.0049561648890203
30.9819917678833,0.0043946508647874
30.989256143569943,0.0042166989944381
31.02533912658691,0.0035774497461214
31.037739753723145,0.0030877326637162
31.076154708862305,0.0020638222830669
31.117311239242554,0.0019995910427123
31.127426862716675,0.0020063145510056
31.16471576690674,0.0018998873293982
31.17883777618408,0.0018984928947162
31.21468424797058,0.0019685789463882
31.26048064231873,0.0020087564335981
31.26643490791318,0.0020826567146875
31.303629636764526,0.0021426663996431
31.31017827987671,0.0021541539035773
31.3448166847229,0.002259901634068
31.38927388191223,0.0023264897809966
31.39911699295044,0.0023510640231879
31.434056758880644,0.0023240908001816
31.44013214111328,0.0023159789352015
31.483612298965426,0.0023241635329513
31.5305757522583,0.0022694558132704
31.53908371925354,0.0022287952318568
31.575374603271484,0.0021542323738885
31.580443620681763,0.0021312227321198
31.618019104003903,0.0021196907024796
31.66073775291443,0.0020442907486442
31.66800832748416,0.0020517741808017
31.706954956054716,0.0021468173812692
31.71088457107544,0.0022084010796566
31.752220630645752,0.0022295535404351
31.800235509872437,0.0023423239779794
31.80359148979187,0.0023545844604328
31.844622850418062,0.0024330846072169
31.85509157180786,0.0025078271888517
31.8969247341156,0.0025062089456504
31.900506496429443,0.0025699028865907
31.941882371902462,0.0024682172369961
31.9807345867157,0.0024291908535167
31.985682249069185,0.0024127124208244
32.02690529823303,0.002276694134444
32.04150199890137,0.002218050079236
32.07400107383728,0.0021572121305892
32.112043619155884,0.0020649686539631
32.12091636657715,0.0019625301897956
32.162606239318876,0.0019579885539754
32.172783613204956,0.0019378847270692
32.21009111404419,0.0020153095746436
32.2542378902435,0.0020789197416652
32.271456241607666,0.0021707002082623
32.304017066955566,0.0022446408128199
32.31313157081604,0.0022948373746735
32.341557025909424,0.0023633268482297
32.38994550704956,0.0024541602510911
32.39876341819763,0.0024470323990783
32.43175172805786,0.0024786280973725
32.43809199333191,0.0024720039330733
32.47243523597717,0.0023715618761489
32.522243976593046,0.0025295053236133
32.568305253982544,0.002492321026944
32.57287096977234,0.0023672575301851
32.6127986907959,0.0022871637924208
32.62091088294983,0.002252359200379
32.65489411354062,0.0021960172332752
32.66108226776123,0.0021633416609404
32.69691562652588,0.0048974370272063
32.704737186431885,0.0068573430508892
32.75898146629336,0.0074565653260066
32.79770112037659,0.0079502161040203
32.81695556640622,0.0081706762317454
32.84101843833923,0.0085078672440589
32.85456609725952,0.0087351944472687
32.888522148132324,0.0089434259064032
32.93228197097778,0.0085745764570375
32.94648504257202,0.0074741968403572
32.988527059555025,0.0067663857645338
33.00517988204956,0.0067068322480566
33.0269193649292,0.0070286716793526
33.071378231048584,0.0070305393217584
33.08361029624939,0.0072800610207127
33.117164850234985,0.0072434911567698
33.12919092178342,0.0073201515251922
33.17244338989258,0.0073192662612212
33.17845010757446,0.0073884711564313
33.226552963256836,0.0069260055936999
33.25897240638736,0.0068986977290891
33.26555156707764,0.0066902526090539
33.30021691322327,0.0062669161461848
33.3109264373779,0.0066695017831314
33.34525227546692,0.0065794161965715
33.35690522193906,0.0065502249575172
33.39653825759888,0.0061104685644725
33.45163011550903,0.0058140127792333
33.45863938331604,0.0054166487019171
33.496187925338745,0.0048830456981918
33.500736951828,0.004813230267973
33.541539907455444,0.0039893778199477
33.58306860923767,0.0044785750721995
33.58591175079343,0.0049294438745148
33.63023543357846,0.0044014667043787
33.639787912368774,0.0043707504002709
33.6720917224884,0.0043586799224565
33.678019523620605,0.0043617297400796
33.720980644226074,0.0044022731444566
33.77633810043335,0.0044013002777175
33.77917671203616,0.0044485432346655
33.81391811370847,0.0022012197671701
33.820531606674194,0.0022608987448554
33.85678815841675,0.0023617766016227
33.90447211265564,0.0023866958038548
33.907302618026705,0.002415863167511
33.95046329498291,0.0024223384629263
33.96093225479126,0.0023330199180789
33.988959312438965,0.0023349753980019
34.00641202926636,0.002289970582565
34.046907901763916,0.0022292249717219
34.096198320388794,0.0022136254177499
34.13580870628357,0.0021585438479131
34.14130091667175,0.0021674790434491
34.18418049812317,0.00214369175618
34.229492902755766,0.0021412721793868
34.24276304244995,0.0021970689841554
34.27734541893008,0.0022138799481487
34.28238582611084,0.0022282642623047
34.31681799888611,0.0023112298028373
34.332725524902344,0.0023877579580679
34.37367296218872,0.0024510587344043
34.41338610649112,0.0025218084651336
34.41894888877866,0.0026119628670242
34.46373963356018,0.0025592248474448
34.469133377075195,0.0025742623889501
34.51004123687744,0.0025121598374658
34.55050730705264,0.0025329334726095
34.56991505622864,0.0023875691651869
34.59697723388672,0.0023486661521095
34.60903882980347,0.0023416262526648
34.64395260810852,0.0022475007083934
34.69268870353699,0.0021921393602543
34.73969769477844,0.0022736727069643
34.77800989150998,0.0022926510544154
34.79292011260986,0.002350081191966
34.83843922615051,0.0023642326754039
34.88548254966736,0.0024307908285748
34.89308738708496,0.0024898328898899
34.92758560180664,0.0025582338856329
34.94245171546936,0.0025404413730177
34.9714469909668,0.0025510434222439
34.97770643234256,0.0025231264038067
35.01752066612244,0.0024942871593489
35.067575693130465,0.0024435990331915
35.0723295211792,0.0024094406279699
35.10704565048218,0.0023925435922581
35.11741614341736,0.0023241635329513
35.15392732620239,0.0024000445949997
35.195706367492676,0.0023639943334833
35.202842235565186,0.0023191882128065
35.24152731895447,0.0024082710533036
35.25078010559082,0.0024682400658111
35.28636288642883,0.0024894028688896
35.328511238098145,0.0025571984710774
35.33681631088257,0.002506770954041
35.37349200248718,0.0025501818556368
35.381673097610474,0.0025801218376839
35.42250466346738,0.0025534939822553
35.47076439857483,0.0025773030942404
35.47867465019226,0.0025336007540228
35.51388192176819,0.0024683770342675
35.533162117004395,0.0024136930938641
35.557268857955904,0.0024327140420415
35.60636210441592,0.002308741749854
35.614309787750244,0.0023592463220455
35.650468587875366,0.0022937567576992
35.653167724609375,0.0022940515219014
35.701456785202026,0.0023462418148032
35.74459171295166,0.0023839083519723
35.786770820617676,0.0024911903636245
35.79685735702515,0.0024835335783398
35.836188316345186,0.0025261840501166
35.85074305534363,0.002613062836159
35.88436388969424,0.0025988570132866
35.935510873794556,0.0026121354418327
35.93975615501404,0.0025872750444553
35.982223987579346,0.0025210263115142
35.99137902259827,0.0025513526315981
36.026697874069185,0.002487432875816
36.037419080734225,0.0024707499477375
36.07901573181152,0.0024649276803252
36.09089374542236,0.002417541886715
36.13854241371155,0.0024849398443264
36.18211770057678,0.0024985530811336
36.192133903503446,0.002567906879285
36.22765374183655,0.002525626361578
36.26854372024536,0.0025239525566064
36.2760272026062,0.0024288660922786
36.317943811416626,0.0025389992702143
36.359474658966064,0.0024103291251603
36.36632561683655,0.0023538185550826
36.40458965301511,0.0023348547367922
36.40993666648862,0.0022606744332727
36.44795489311218,0.0021829179353079
36.49340748786926,0.0022187358738043
36.49997878074646,0.0022300336691648
36.535733461380005,0.0022134726854617
36.54408359527588,0.0023599865901472
36.587974309921265,0.0024208958329084
36.630638122558594,0.0025232603929065
36.63189148902896,0.0025848565106057
36.67295169830322,0.0026292071394551
36.69033837318421,0.0026980427601513
36.715590715408325,0.002682060703547
36.76873803138736,0.0026223187407499
36.81399774551392,0.0025407740497336
36.81965684890747,0.0024372495831552
36.85955619812012,0.0024307676480512
36.87766027450559,0.0022601010914179
36.90390610694888,0.0022535846883561
36.95135951042175,0.0022145670340999
36.95435404777527,0.00214369175618
36.99873185157776,0.0021462923843472
37.01113700866699,0.0022451428123817
37.04688453674317,0.0022925281655759
37.08881831169128,0.002375929571978
37.10183978080752,0.0025235506782168
37.14038920402527,0.0026642280197751
37.18365001678467,0.002752420491744
37.195324420928955,0.002740521182258
37.23876738548279,0.0048345010520793
37.284634590148926,0.006622991594083
37.2949249744415,0.0076288837157293
37.33405375480652,0.0080683158956599
37.341567516326904,0.0083294092848782
37.375319719314575,0.0085863311565544
37.38582706451416,0.0089737673385075
37.42917776107788,0.0093235985208328
37.465609788894625,0.0089519084584388
37.473758697509766,0.0083597752106415
37.50973296165466,0.0074867986873414
37.520323514938354,0.0075628554241111
37.552188396453886,0.0073879678031483
37.60333037376404,0.0075127715200689
37.60470938682556,0.0075830044233459
37.64458346366882,0.0076371884160719
37.64986062049863,0.0075958782614364
37.697142601013184,0.007427028290781
37.74187970161438,0.0071980674799311
37.74995398521423,0.0069787507901378
37.78429770469663,0.0069694917944928
37.796276807785034,0.0073079408317815
37.8364737033844,0.0068838736983677
37.845085859298706,0.0067383641664797
37.88878226280213,0.0066576211749357
37.906811475753784,0.006654116365988
37.94082856178284,0.0066811419930426
37.94296717643738,0.0064731163651877
37.9904088973999,0.0061110955837239
38.036723375320435,0.0055012162986821
38.049818992614746,0.0052475696879447
38.08454322814944,0.004798515948383
38.09177541732788,0.0040008583923186
38.135188579559326,0.0038295237442126
38.135305643081665,0.0032488086687449
38.17925190925598,0.0021990172407023
38.22169065475464,0.0023743163595015
38.26182770729062,0.0023893620952714
38.28245377540589,0.0023880883096957
38.31668186187744,0.0023795789807185
38.35666871070862,0.0023082535818462
38.365501165389986,0.0022640367735062
38.39823770523071,0.0022713419804501
38.409408569335966,0.0021357125798927
38.44863295555115,0.0020558346048888
38.49290204048157,0.0021155930326272
38.50725865364075,0.0020474580372049
38.53885340690616,0.0021487325314883
38.55396819114688,0.0022395139898128
38.583899974823,0.0023117660906496
38.62944960594177,0.002376214142843
38.64189410209656,0.0024883161690278
38.67731976509094,0.0025605455332833
38.67951703071594,0.0025777403106197
38.71954417228699,0.0025844859046665
38.76564645767212,0.0025401530179542
38.772541522979765,0.0025091973837967
38.80542111396792,0.0024953486783238
38.81342840194702,0.0024094640136724
38.85457491874695,0.0024039855575802
38.90679287910464,0.0023010655613736
38.941537618637085,0.0023049068511827
38.9508261680603,0.0022207919868433
38.98926496505737,0.002236568303116
39.033214807510376,0.0022158134236851
39.079381465911865,0.002250932793245
39.08274459838867,0.0023052490757439
39.123682737350464,0.0023246483599274
39.17501950263977,0.0023605595415007
39.19117498397827,0.002418380809336
39.21443009376526,0.0023840501654594
39.22265911102295,0.0024174719633555
39.2658166885376,0.0024123387262303
39.32526707649231,0.002377565389316
39.35244584083557,0.0023456173224323
39.36707162857056,0.0022967517643202
39.40109205245972,0.0022846988568075
39.411696910858154,0.0022254809235073
39.450358152389526,0.0022106962118269
39.50448703765872,0.0022036502315682
39.513954162597685,0.0022126070033522
39.54088449478152,0.0021949136360241
39.55135917663574,0.0023008696551466
39.59306192398071,0.0023167330286174
39.6008460521698,0.0023744112846933
39.638227701187105,0.0024908510645473
39.68479657173157,0.0025607655813688
39.69453263282776,0.0025711961732381
39.73215389251712,0.0026555214035899
39.73532295227051,0.0026483184926249
39.77585792541504,0.0026197389873062
39.79206705093384,0.0026662575859312
39.83213829994199,0.0026079040715168
39.88084888458252,0.0025407075178752
39.88989043235779,0.0025061414961742
39.92747187614438,0.0024810820502178
39.93222498893738,0.0024967934252823
39.969358921051025,0.0024366021656012
39.97090411186218,0.0023856331767393
40.01347041130066,0.0024240591877673
40.06191611289978,0.0024365790403641
40.11455392837525,0.0025420378241925
40.11697721481323,0.0025690476447805
40.14965438842776,0.0026154552875085
40.15956473350528,0.0044407466068498
40.206034660339355,0.0054418473799511
40.249170780181885,0.0062723534285821
40.25490760803223,0.0072682481329811
40.28869295120239,0.0077512626774384
40.29517602920532,0.0080344156116302
40.343703508377075,0.0083006226978319
40.3807692527771,0.0085796020841655
40.38776516914368,0.0086831253002551
40.428924798965426,0.008286232702559
40.43448710441592,0.0079174826740873
40.47769570350647,0.0074792838227389
40.515141010284424,0.007108299420698
40.51925802230835,0.0071301914977138
40.565550804138184,0.007294388902875
40.56786489486694,0.0072888714029233
40.61132502555847,0.0072249769382681
40.65258502960208,0.0068164566608879
40.66351199150088,0.0070470779664426
40.69920301437378,0.0071550963711792
40.710529804229765,0.0070479254659089
40.740981578826904,0.0069172869520437
40.75373864173886,0.0068964675769451
40.80378174781799,0.0069783874487356
40.84920001029968,0.0070583349995055
40.85817670822144,0.0070310682633475
40.890156507492065,0.0069922053244929
40.900922536849976,0.0067020921872304
40.93624258041382,0.0067788571180522
40.93843054771423,0.0068737000083326
40.98244762420654,0.0065963940169547
41.024529218673706,0.0065445191743207
41.0696804523468,0.0063124169793085
41.082794189453125,0.0062310557733501
41.116305112838745,0.0060362563734326
41.12737870216367,0.0060167901076858
41.16484975814819,0.0056879845713858
41.1730055809021,0.0056944101140297
41.20923948287964,0.0055577213009966
41.216694593429565,0.0053197459562546
41.25678372383118,0.0053733153592843
41.30069351196286,0.0054009180718951
41.304874897003174,0.0051569340375431
41.341630697250366,0.0048699310263555
41.348665475845365,0.0045609305787673
41.391578912734985,0.004241401195861
41.44438791275024,0.0032759080911309
41.48415422439575,0.002738834694868
41.49521493911743,0.0021428504741241
41.53867220878598,0.0020519389488551
41.54459738731384,0.0021005177367171
41.57823705673218,0.0021315928416312
41.626091718673706,0.0021446903500035
41.64789175987244,0.0023242847491764
41.672476291656466,0.0023765223894938
41.68249177932739,0.0023942621962123
41.722726583480835,0.0024435067958023
41.76514720916748,0.0023692560996548
41.81118941307068,0.0025089952709435
41.81345343589783,0.0024019689678636
41.85379958152771,0.002226746508794
41.8592221736908,0.0022501316069611
41.9060614109039,0.0021493093654078
41.95548343658447,0.0020630030567027
41.9994432926178,0.0020297408453885
42.00595569610596,0.0019736387238968
42.04243898391723,0.0019011325546038
42.08221125602722,0.0018336636523192
42.08529591560364,0.0018928453481115
42.12683892250064,0.0018476534593685
42.13875579833984,0.001851765893533
42.16959571838379,0.0019504630685207
42.21206617355347,0.0019816733765139
42.218467235565186,0.0020497684419583
42.26363444328308,0.0021351056821824
42.27054738998416,0.0022751591563301
42.31111431121826,0.002288395264567
42.353708505630465,0.0023714668369008
42.36514210700992,0.0023400857089108
42.39708924293518,0.0023230237912645
42.40653610229492,0.0023267561817385
42.4454185962677,0.002188846776395
42.49711298942566,0.0021713231075648
42.51024627685547,0.0021895417178583
42.54096031188968,0.0020276021557988
42.54650664329526,0.0019865012613114
42.58495497703552,0.0020319882063044
42.59199357032776,0.0019643094819906
42.628557920455904,0.0019760924702401
42.6783230304718,0.0019834923123885
42.72108030319214,0.001960778020111
42.72437262535095,0.0020213118952395
42.77341270446777,0.0018953145042262
42.81092381477356,0.0019382045412147
42.81677460670471,0.001989165766705
42.85212969779968,0.0020198897026408
42.86619424819946,0.0020157848274682
42.907819509506226,0.0019690940939006
42.94874405860904,0.0019424153512643
42.96036982536316,0.0020334850670645
42.99487614631656,0.0021359500146651
43.00433540344238,0.0021005713863624
43.04529809951782,0.0021427715869971
43.09139704704282,0.0021559318626293
43.09789276123047,0.0022458203337971
43.12794542312622,0.002241877805949
43.14149737358096,0.0022532846304773
43.18149089813232,0.0022512331645908
43.18973350524902,0.0021789908913882
43.23517370223999,0.0020687308285028
43.27875018119812,0.0020833870775591
43.28948092460632,0.0020194433181706
43.32281756401062,0.0018674312433848
43.32781410217288,0.0019095018309402
43.36637592315674,0.0018727944058392
43.410868406295776,0.001876221186906
43.41912651062012,0.0020565196958513
43.454365968704224,0.0021451632058819
43.4674756526947,0.0022364171376734
43.50545716285703,0.0022710938900558
43.54463624954224,0.0023849008692962
43.5527708530426,0.0023890790905016
43.59167504310608,0.0024234547479916
43.63496112823486,0.0023097665668386
43.67855072021485,0.0024139965547791
43.68561124801636,0.0023215194463113
43.72391605377197,0.002334444442029
43.73470997810364,0.0023171950936053
43.764748096466064,0.002213778139501
43.78362011909488,0.0021622735048241
43.833505392074585,0.0020905149583745
43.8743417263031,0.0020795430368497
43.88504672050476,0.0019962913620088
43.91602921485904,0.0019017844900325
43.92142152786255,0.0018359975745095
43.96430158615112,0.0018371020816895
43.9666907787323,0.0020824402616805
44.00419020652771,0.0021286036926379
44.064215898513794,0.0024548948509245
44.1002733707428,0.0025841806598671
44.11000871658328,0.0026871400107558
44.1559522151947,0.0027581466123377
44.1940393447876,0.0028298406356637
44.2012677192688,0.0026362699079326
44.23744773864746,0.0025788330272675
44.24191164970398,0.0025831338324292
44.2804000377655,0.0023943327973829
44.29212522506714,0.0022489543471413
44.34106063842776,0.0023066663223177
44.38290548324582,0.0022168049472017
44.38963580131531,0.0021049124664573
44.42719316482544,0.0021381384480923
44.437026262283325,0.0021952216724632
44.47139430046079,0.0023314253513872
44.51290941238403,0.0024009365693145
44.52149820327759,0.0024488738309251
44.56149864196777,0.0023265624387696
44.56265640258792,0.002391247937787
44.60074830055237,0.0024254767052083
44.61729121208191,0.0023927319926436
44.65801763534546,0.0024608324481748
44.704240798950195,0.0023452329367814
44.70656752586368,0.0023135690555296
44.75070023536682,0.0023008941443372
44.79003572463992,0.0022818608890935
44.80707693099976,0.0039561321887829
44.85250639915466,0.0040588847949305
44.89341974258423,0.0057990977516096
44.903069257736206,0.0066956322405496
44.94334030151367,0.0074615586069596
44.95019030570984,0.0079626660875613
44.983795166015625,0.0081377701968568
45.03389072418216,0.0088265402953858
45.072548151016235,0.0088188572582221
45.08591270446777,0.008390581921088
45.11848211288452,0.0080071934547443
45.1575493812561,0.0080155842165226
45.16437101364136,0.0078766052967766
45.203168153762846,0.0080751640037122
45.21483039855957,0.0081425948644079
45.25831651687622,0.0082801580378446
45.300336122512846,0.0080455518235385
45.317394733428955,0.0081255746423582
45.339982986450195,0.0080038431349995
45.35170650482178,0.0077709231763753
45.385005474090576,0.0076681058147221
45.42874383926392,0.0076078860391695
45.43894052505496,0.0074358842921176
45.47846078872678,0.0068164318620045
45.48168063163757,0.0070778663429241
45.52164840698242,0.0063792075061696
45.56103491783142,0.0059390934427326
45.57322549819946,0.005449493864707
45.60966348648071,0.0050147780355531
45.61930632591248,0.0040334979337483
45.66396427154544,0.0035270553624546
45.70181012153623,0.0032162472484198
45.716078758239746,0.0021213116168746
45.74584579467776,0.0022257340981351
45.756327867507906,0.0022083245341699
45.79973292350766,0.0021883833594833
45.8486328125,0.0020501807402538
45.85426640510559,0.0020493010702792
45.88707900047302,0.0021382702099042
45.89664173126218,0.0021531335292876
45.93343901634216,0.0020293799260662
45.934794425964355,0.0019997882868918
45.97842335700992,0.00202960203786
46.020447731018066,0.0019984353644287
46.03434658050537,0.0020044038818496
46.06888484954834,0.0020177126455778
46.07647442817688,0.0019354407673383
46.11720538139343,0.0019406450203781
46.16223573684693,0.0019116547454287
46.20901536941528,0.0019372158541535
46.22032451629639,0.0020294354562936
46.25892615318298,0.0019712962608073
46.291985511779785,0.0019165414114611
46.297849893569946,0.001925516861484
46.33645272254944,0.0019116547454287
46.34944152832031,0.0018525568694884
46.38878130912784,0.0017892760567453
46.43561482429504,0.0016963239900353
46.44530916213992,0.0016950612753777
46.48429799079895,0.0016367495788641
46.48986887931824,0.001723183175909
46.52934265136719,0.0017333553070775
46.53746032714844,0.001757630823151
46.56926107406616,0.0018488729120039
46.61560535430908,0.0019848270318655
46.61985421180728,0.0020713439632226
46.66024231910703,0.0022147960153833
46.66985392570496,0.0023055668102088
46.71042490005496,0.0022707961458046
46.75049066543579,0.0022573570080204
46.755526304244995,0.0022400422927817
46.7967894077301,0.0021797406761817
46.815537452697754,0.003156833271118
46.84046745300296,0.0036741121476307
46.885375022888184,0.0037145457951166
46.897913694381714,0.0036627150473599
46.929765701293945,0.0036422434408789
46.93980002403259,0.0036865134998506
46.97876691818237,0.0037357524957961
47.02349495887756,0.0037322817701242
47.030203342437744,0.0037647503380929
47.06931519508362,0.002115113566036
47.07523703575134,0.0020043195456717
47.120170831680326,0.0020289356295334
47.16587209701538,0.0020783233713577
47.17356991767883,0.0020022099867057
47.21669673919678,0.0020477607385366
47.25055956840515,0.0020143587326116
47.26230192184448,0.0020031665953848
47.30600523948672,0.002113434576366
47.34921979904175,0.0020494660371598
47.36403822898862,0.0021141809586119
47.39470410346982,0.0021203551615105
47.4013888835907,0.0021582044685908
47.44190287590027,0.0022298315223002
47.482741355896,0.0022604750265128
47.49154877662659,0.002334034075141
47.528995752334595,0.0024247099544022
47.53479981422424,0.0024102589925533
47.57684826850891,0.002399856768689
47.62286138534546,0.0024430224923747
47.634318113327026,0.0024238732223518
47.661271333694486,0.0024911451264177
47.67127943038941,0.0023801945625754
47.704832792282104,0.0022944690396994
47.75312185287475,0.0022701508992938
47.76125383377075,0.0021125279005443
47.79615044593811,0.0020195828239162
47.80329704284668,0.0019577295360348
47.853270053863525,0.0019197140090841
47.89262843132019,0.0017248500296368
47.90050745010376,0.0017365056542451
47.95148944854736,0.0017341353072551
47.959717512130766,0.0016873315744387
47.99008870124817,0.0017302317900769
47.99455451965332,0.00172507868778
48.029038190841675,0.0018296337188584
48.083725929260225,0.0019835207200266
48.121264934539795,0.0020894095718388
48.126848220825195,0.0021266704156863
48.16957139968872,0.0022095489437456
48.21235990524292,0.0022879273832337
48.21668171882632,0.0023323435683824
48.25499868392944,0.0022673692766847
48.278839349746704,0.0022891338298604
48.302446365356445,0.0021866317870324
48.350345611572266,0.0020504830396482
48.390798807144165,0.0019734959703815
48.39513325691223,0.0018236493664849
48.43712830543518,0.001806170143678
48.48661971092224,0.0017676047276833
48.49383044242859,0.0016959253396071
48.52543091773987,0.0047542419702405
48.53369140625,0.0067832860360458
48.57580351829526,0.0073550303939136
48.62441658973694,0.0078512260652859
48.63258457183838,0.008158750870492
48.66160321235657,0.0085287699236017
48.67315936088562,0.008873267209267
48.70539832115176,0.0091126155161552
48.75398898124695,0.0087921540869084
48.75887989997864,0.0078122525687409
48.79362177848816,0.0073029428199766
48.8024218082428,0.0070992649472494
48.84197998046875,0.0072314549042777
48.889485120773315,0.0072720225964158
48.926241636276245,0.0071466177949055
48.9413614273071,0.0070384692718459
48.978165864944486,0.0070777310050112
49.02650690078735,0.0071179478293626
49.040974617004395,0.0069920763871926
49.06960129737854,0.006639111173123
49.088821411132784,0.0065327649069216
49.11889266967776,0.0061018866877153
49.12753486633304,0.0054266466882165
49.1738007068634,0.0050184845911066
49.21260356903076,0.0043091839858286
49.22672486305237,0.0041767825801088
49.259227991104126,0.0033378458004065
49.26548504829407,0.0024117780757721
49.30533599853515,0.0023261749044221
49.350968599319486,0.0018984335343505
49.35639691352844,0.001856415639198
49.40233564376831,0.0018200307348549
49.44127130508423,0.0018797316505978
49.45387530326843,0.0018635650470345
49.498568534851074,0.0018511572205081
49.54656171798706,0.0018904921919139
49.55626463890076,0.0018409014229193
49.58523750305176,0.0018702955190237
49.60597062110904,0.0018828166415598
49.632421016693115,0.0018809902190139
49.64145612716675,0.0018221347457912
49.689409255981445,0.001848598605297
49.72846078872678,0.0018388801700612
49.7353036403656,0.001911183081285
49.77801251411438,0.0019177170595974
49.794904708862305,0.001909324771101
49.81672763824463,0.0019428214291118
49.82682490348816,0.0019172468868512
49.86943364143371,0.001914688301838
49.91339588165283,0.0019478324044526
49.91946959495544,0.0019653132097736
49.95629644393918,0.0019148354395479
49.962021589279175,0.0019268040109381
50.005608558654785,0.0019391927241991
50.04987072944638,0.0019360520465004
50.06228590011597,0.001983946785787
50.09932589530942,0.0019940037690309
50.10608410835266,0.0019694088399343
50.140963315963745,0.0019735530730267
50.150399923324585,0.0019542438502696
50.19470548629758,0.0019742096347343
50.238075971603394,0.0019385243025978
50.24660611152646,0.0018916840292482
50.28573775291443,0.0019128333969652
50.29301857948303,0.0018134865738441
50.334994316101074,0.0017829350576071
50.33789014816284,0.0019129512221769
50.391141176223755,0.0019484108769067
50.43285250663757,0.0019171587166243
50.437321186065674,0.0020382731633405
50.473010540008545,0.0021921393602543
50.49414682388303,0.0022335430504082
50.518445014953585,0.0023782999554436
50.56743741035464,0.0024632583798451
50.57449388504028,0.0024495180050302
50.61430478096008,0.0024782870784122
50.6282172203064,0.0025228137348995
50.65281653404236,0.002515902791956
50.705336570739746,0.0024100719622905
50.74918723106384,0.0023037575826266
50.75491285324097,0.0022628916483428
50.79302930831912,0.0021861679005943
50.8336269855499,0.0021767917584714
50.84432601928711,0.0021084430344619
50.88821792602539,0.0020791094599804
50.920270681381226,0.0019943145837823
50.9654848575592,0.0019780874586034
50.971076726913424,0.0020123437016978
51.014718055725126,0.0021015636577601
51.01669454574582,0.0021011882588262
51.05938148498535,0.0022335682777783
51.10563945770264,0.0021917794748074
51.10752916336059,0.0022329375080221
51.143805503845186,0.0023742926276105
51.15447664260864,0.0024173321105686
51.1934278011322,0.0024398837239185
51.246980667114286,0.0023627307199081
51.25101947784424,0.0022995713548466
51.28830862045288,0.0022475508495182
51.29940176010132,0.0021831760458093
51.3364999294281,0.0021147938612503
51.34884309768677,0.0020295465121904
51.376840114593506,0.0019744664907548
51.42482829093936,0.0018977210651335
51.43000102043152,0.001890134494167
51.46736550331116,0.0019584777166206
51.471795320510864,0.0019256339106232
51.51315116882324,0.0020266292780693
51.55666732788086,0.0021040288987836
51.56667733192444,0.0021986584810555
51.60311818122864,0.0023141534992302
51.606650590896606,0.0023368327938714
51.653244495391846,0.0024143933307326
51.706289768218994,0.0024244775577989
51.744964838027954,0.0047559483356495
51.78858757019043,0.0062615551322985
51.80303907394406,0.0072959800110291
51.83886480331424,0.0075571163940764
51.88473892211914,0.0078158652513069
51.89241242408752,0.0081397017915374
51.93392872810364,0.008486640869215
51.94096040725708,0.0087679598028076
51.985065698623686,0.0085720592519142
52.02375268936157,0.008103833661421
52.033840894699125,0.0073257531488848
52.07315421104431,0.0076331885239066
52.07909440994263,0.0077252382895677
52.12401103973386,0.0078590807400464
52.16994619369507,0.0076846361320262
52.21443295478824,0.0076024181813198
52.22799730300903,0.0075576308485591
52.25696420669556,0.0073596714830621
52.262938022613525,0.0070940007767277
52.304497718811035,0.007149605354971
52.30990290641782,0.0069597509247716
52.35904550552368,0.0067496184888511
52.4115788936615,0.0064302165709645
52.44386172294617,0.0064159875576671
52.45532965660095,0.0065312121772602
52.49570989608762,0.0066830561683283
52.50369334220886,0.0066066791702814
52.5442488193512,0.0063901597009643
52.59179663658142,0.0063928661724857
52.60398626327515,0.0064158909523122
52.63464951515198,0.0065072966484668
52.6428458690643,0.0062986554260322
52.681260108947754,0.0059415312120246
52.72539830207822,0.0055185399793912
52.764373064041166,0.0055636086280389
52.77879190444946,0.0052816264780268
52.812092781066866,0.0051087970990088
52.857325315475464,0.0048797328066768
52.8686466217041,0.0045469117037948
52.90136098861694,0.004029206954981
52.91793942451477,0.003605361059628
52.952396869659424,0.0033209895950665
52.95849299430847,0.0026995042653327
53.000813722610474,0.0024944904639081
53.049084186553955,0.0017463098261269
53.10268044471738,0.0015655215103437
53.10841226577759,0.0015838423710437
53.14579391479492,0.0016402572718682
53.15526032447815,0.0016702812814062
53.1939594745636,0.0017039467648418
53.23641061782837,0.0018402891564897
53.24724054336548,0.0021010541715234
53.28590583801272,0.0021656325097708
53.28857684135437,0.0022754810923738
53.328596115112305,0.0023672337275283
53.37965488433838,0.002373248189469
53.38141584396362,0.0024898328898899
53.421119928359985,0.0024622974475295
53.426037311553955,0.0025058716801142
53.46635627746582,0.002549010541931
53.51362419128418,0.0024672125600152
53.55876541137695,0.0024102589925533
53.56600832939148,0.0023214709028244
53.59743881225586,0.0024225943236847
53.61145257949832,0.0023818274507586
53.6489155292511,0.0023071304034356
53.694185972213745,0.0021032253333386
53.703246116638184,0.0020899488578202
53.73368692398071,0.0020538053962904
53.74661898612976,0.0021680248999203
53.79314470291138,0.0021703886915717
53.833587884902954,0.0021997345844633
53.84246110916138,0.0020724589854264
53.87718105316162,0.001998660915104
53.89360213279724,0.0019549645426663
53.926604747772245,0.0019770332155709
53.93721628189087,0.0020383560947013
53.98042416572571,0.0021021802390477
54.0191593170166,0.0021446115305543
54.02583909034726,0.0021649559203687
54.06776404380798,0.0037226524778453
54.07532572746277,0.0048078890783713
54.10888838768008,0.0056494872928928
54.15285301208496,0.0060529424512579
54.16327452659607,0.006385572832495
54.20144152641296,0.0065598008750546
54.21645212173462,0.0066914316150463
54.25508999824524,0.0068634455608141
54.262494325637846,0.0070437109476457
54.30573081970215,0.006235168929527
54.34473276138303,0.0055655629370102
54.35309624671936,0.00534726692153
54.38465666770935,0.005397870832643
54.39500951766968,0.0052731809866647
54.429020643234225,0.0051719904927451
54.480525732040405,0.0050012088958852
54.5253267288208,0.0047515745475267
54.53682732582092,0.0050979105559823
54.56910467147827,0.0049469701922374
54.581412315368624,0.0048902985066005
54.62409162521362,0.0046783651503062
54.665080308914185,0.004867245968335
54.673235177993774,0.0049462753442541
54.71360230445862,0.0048648026675261
54.72741174697876,0.0047527483979584
54.759305477142306,0.0047826961631367
54.80159068107608,0.0046177275514573
54.811115741729765,0.0047070146696746
54.8458456993103,0.0046715190878642
54.86342573165896,0.0045338313956364
54.88817262649536,0.0046399189579618
54.933340549468994,0.0044222716801907
54.95082759857178,0.0046338673468365
54.98166084289551,0.0045263310706648
54.99533653259277,0.004257974981437
55.02797770500183,0.0041998281675202
55.08203959465027,0.0040760348741347
55.09139347076416,0.0040140330912152
55.11980724334717,0.0037896626768262
55.11983942985535,0.0034566675586342
55.16140961647031,0.0032748931137931
55.20868158340454,0.0028191278136195
55.214629888534546,0.0028552335034347
55.25770211219787,0.0024871157196845
55.26060175895691,0.002373580560547
55.29791498184204,0.0021872501492412
55.30739140510559,0.0021592746375905
55.34623312950134,0.0022902658340596
55.3942015171051,0.0022816139424688
55.40972542762756,0.0023486901429383
55.44433832168579,0.0023403505620367
55.45243024826053,0.0024492879622986
55.48740839958191,0.0024008896315596
55.53734803199768,0.0023401097877064
55.541253089904785,0.0023625637770234
55.58109474182126,0.0022740691884647
55.58668351173398,0.002255109365264
55.62489271163941,0.0023272404685961
55.633076906204224,0.0023049557435167
55.67524671554568,0.0022620697884036
55.71954369544983,0.0021787840087966
55.7212872505188,0.0021952473402154
55.76962399482727,0.0022357619693167
55.77610397338867,0.0023288137053578
55.81606221199035,0.0023185321310505
55.81857109069824,0.0023432379242624
55.86497712135315,0.0023319569947674
55.90458583831787,0.0023886309310419
55.91590142250064,0.0024776958676941
55.95382499694824,0.0024706131108333
55.959734439849825,0.0026010459080999
56.00153350830078,0.0025371344155593
56.05154061317444,0.0023781577990619
56.08434534072876,0.0022332655305292
56.095816135406494,0.0021759114829761
56.12925481796265,0.0021126079170044
56.18110680580139,0.001801328148885
56.22065782546997,0.0018378073915327
56.23153352737427,0.0018809303062805
56.26931667327881,0.0018569012146555
56.313228607177734,0.0019287331245222
56.327818870544434,0.0019984635596552
56.36244988441467,0.0020183827593942
56.3680694103241,0.0021786029704132
56.40741991996765,0.0022347788566406
56.42103695869446,0.0021792236108276
56.45715665817261,0.002303512983424
56.50318217277527,0.0022696047781961
56.51963257789612,0.002231044128751
56.54530692100525,0.0022517086706089
56.557560443878174,0.0022211218030414
56.60159254074097,0.0021831502361324
56.6134991645813,0.0020848470357209
56.65179133415222,0.0020190805581219
56.66626763343811,0.001939541374458
56.70990037918091,0.0019953032176987
56.74843525886536,0.0019923358442146
56.76303052902222,0.0019705529471792
56.79737830162048,0.0020088405835043
56.80554389953613,0.0020579439545083
56.847071409225464,0.0021289477906773
56.85820388793945,0.0022069973239095
56.89309763908386,0.0023504647847527
56.932778120040894,0.0023099617185249
56.94633150100708,0.0023789158682684
56.987313985824585,0.0024387518541625
56.991705894470215,0.0024500930173635
57.030744314193726,0.0023127652042897
57.04182171821594,0.0023122291482073
57.0801990032196,0.0023602492101157
57.131563901901245,0.0021681028681975
57.13756990432739,0.0021600051800214
57.17159843444824,0.0020992028921003
57.17731070518494,0.0020914850599826
57.21710157394409,0.0020912695207374
57.26406121253967,0.0021837953865439
57.27673816680908,0.0021856523557456
57.30489778518677,0.0022967272309609
57.30737400054931,0.0023055912495078
57.34713292121887,0.002323727102185
57.396021366119385,0.0024511506876123
57.43659043312073,0.002402625717784
57.444923877716064,0.0023838138049606
57.4850480556488,0.0023043934190467
57.527700662612915,0.0024167259883052
57.56856751441955,0.0023965674253677
57.58252477645874,0.0023888904020291
57.61587429046631,0.0024033995140817
57.66125011444092,0.0023863180350925
57.664178133010864,0.0024437373827476
57.70700144767761,0.0024432531250271
57.71188259124756,0.0023109859945091
57.751399517059326,0.0023350236607399
57.75807976722717,0.0023017755816734
57.80613827705383,0.002189515983219
57.85508131980896,0.0021711933516138
57.895894050598145,0.0021407458225589
57.89712190628052,0.0022075589333238
57.94181180000305,0.0022621196065968
57.98987984657288,0.0024624805111667
58.02888536453247,0.0024850532181975
58.07128930091858,0.0025323550198243
58.08579874038696,0.0024965451688996
58.128002405166626,0.0025015957142948
58.168606996536255,0.0024651105486364
58.172091007232666,0.0024755344742254
58.213722229003906,0.0023545605296617
58.21500396728515,0.0023079362172703
58.25678706169128,0.0022892815143261
58.29970288276672,0.0021923706839884
58.309258460998535,0.0023370256854125
58.34418773651123,0.0023087905609778
58.349342584609985,0.0023765935176587
58.39121675491333,0.0024025084541795
58.43777060508728,0.0024517253170264
58.44330024719238,0.0025388439179781
58.48071074485779,0.0026427595128092
58.490954637527466,0.0026518267780973
58.53541588783264,0.0026720418270471
58.58091759681702,0.0027785818288592
58.58358550071716,0.002700589442885
58.620768785476685,0.0027171054368032
58.625646114349365,0.0026413946052082
58.672354221343994,0.002613623426577
58.722516775131226,0.0024852572781323
58.75509572029114,0.0025325775173004
58.75881361961365,0.0025298394384323
58.80039358139038,0.0024131561079927
58.84572744369507,0.0024290284783252
58.848806858062744,0.0024580373745272
58.894055128097534,0.0025342011570694
58.93655610084534,0.0025377339825763
58.9432065486908,0.002789975520257
58.99517369270325,0.0027550396236013
59.03953170776367,0.0026446564165181
59.07983708381653,0.0026443794255575
59.08469486236572,0.0025706263304957
59.12411093711853,0.002567775219885
59.172611713409424,0.0026339391487223
59.17596459388733,0.0023211796205836
59.21601748466492,0.0024111004491988
59.22063732147217,0.0024351448467724
59.26501202583313,0.0024426765025662
59.314435720443726,0.0025486789403171
59.351433515548706,0.0025418826576636
59.3543496131897,0.0025636244876943
59.39548087120056,0.0025095342023794
59.40158152580261,0.0024481604404532
59.44575762748718,0.0024602599458643
59.48721337318421,0.0025126980901555
59.49142265319824,0.0024189399294443
59.533738136291504,0.0024241056768921
59.53776550292969,0.0024245007984617
59.57880759239197,0.0023984945880543
59.625845193862915,0.002422361724112
59.62893605232239,0.0024608553454969
59.66957449913025,0.0025068383865809
59.67600297927856,0.0025804712346436
59.72058343887329,0.0025429464665859
59.76557636260986,0.0025746125810874
59.76835227012634,0.0025734085959693
59.80777311325073,0.0025536705083427
59.81176209449768,0.0025539573372117
59.852930307388306,0.0025081192603746
59.899848222732544,0.0024602141399242
59.94049549102783,0.0024584041226175
59.94337177276611,0.0024949873608662
59.99506735801697,0.0025189692066496
