timestamp,emg
0.0,0.0060132397569509
0.0287273771904625,0.0076231305718426
0.057454754380925,0.0059674233906827
0.0861821315713875,0.0065211830525323
0.11490950876185,0.0060955056243617
0.1436368859523125,0.0062803004464206
0.172364263142775,0.0061000537585288
0.2010916403332375,0.005810293986538
0.2298190175237,0.0056023991643247
0.2585463947141626,0.0052541719972192
0.2872737719046251,0.0064294575584262
0.3160011490950876,0.006663385054098
0.3447285262855501,0.0065015196734927
0.3734559034760126,0.0064514660034882
0.4021832806664751,0.0065382499614876
0.4309106578569376,0.0064057327553967
0.4596380350474001,0.007195053888372
0.4883654122378627,0.0049572438999057
0.5170927894283252,0.0056394251065605
0.5458201666187876,0.0062339215214469
0.5745475438092502,0.0059188413977615
0.6032749209997127,0.005655634366945
0.6320022981901752,0.0057533013332163
0.6607296753806376,0.0056082695704357
0.6894570525711002,0.0053707272667332
0.7181844297615627,0.0058303452446714
0.7469118069520252,0.0054690945580527
0.7756391841424878,0.0054607598666361
0.8043665613329503,0.0056872696497107
0.8330939385234127,0.0054262448476319
0.8618213157138752,0.0056856650505021
0.8905486929043378,0.005570308552484
0.9192760700948004,0.0060489695360584
0.9480034472852628,0.0058659106703524
0.9767308244757252,0.0051775729594078
1.0054582016661875,0.0058120662850189
1.0341855788566503,0.0054629835846712
1.062912956047113,0.0052172225848139
1.0916403332375753,0.0061338667069092
1.1203677104280378,0.0057652410280529
1.1490950876185004,0.0055156396935639
1.1778224648089628,0.0057627626101676
1.2065498419994254,0.0056653696399029
1.235277219189888,0.0054981949833195
1.2640045963803503,0.0055461661012521
1.292731973570813,0.005656185652156
1.3214593507612753,0.0051559167900064
1.350186727951738,0.0049171808483307
1.3789141051422005,0.0053924185382252
1.4076414823326628,0.0058551315773495
1.4363688595231254,0.0058704550351176
1.465096236713588,0.0057663456770381
1.4938236139040504,0.0059133940829286
1.522550991094513,0.0056605474465269
1.5512783682849756,0.0058329031805837
1.580005745475438,0.0066433259763295
1.6087331226659003,0.0050213895424323
1.637460499856363,0.005472172781453
1.6661878770468257,0.0058175162834206
1.694915254237288,0.0057835796499788
1.7236426314277504,0.0056500366263043
1.752370008618213,0.0054057743639388
1.7810973858086756,0.0055402672288123
1.809824762999138,0.0053533549487445
1.8385521401896008,0.0056367691880728
1.8672795173800631,0.0056695114546833
1.8960068945705255,0.0052808717457815
1.924734271760988,0.0052921529667375
1.9534616489514507,0.0055635634586675
1.982189026141913,0.0056507611601526
2.010916403332375,0.0054776670969474
2.0396437805228382,0.0053696042331459
2.0683711577133006,0.0053786470609166
2.097098534903763,0.0055059598244783
2.125825912094226,0.0054713494537413
2.154553289284688,0.0053052776924997
2.1832806664751505,0.0052436482378128
2.2120080436656133,0.0052588641801473
2.2407354208560757,0.0053766525047405
2.269462798046538,0.0048853610923718
2.298190175237001,0.0053806910675015
2.3269175524274632,0.0062823566519989
2.3556449296179256,0.0052460052806587
2.3843723068083884,0.0052877918511286
2.4130996839988508,0.0052197998297457
2.441827061189313,0.0052083861934139
2.470554438379776,0.005294327136907
2.4992818155702383,0.005315742815021
2.5280091927607007,0.0051284544385431
2.5567365699511635,0.0047711788692937
2.585463947141626,0.0057413463001261
2.614191324332088,0.005699246302024
2.6429187015225506,0.0054198981730154
2.6716460787130134,0.0055877703677186
2.700373455903476,0.0058576975872021
2.729100833093938,0.0060713867273234
2.757828210284401,0.0062013420715772
2.7865555874748633,0.0060331973041207
2.8152829646653257,0.0049225516252969
2.8440103418557885,0.0047179820603909
2.872737719046251,0.0069290121481677
2.9014650962367132,0.0056882248648734
2.930192473427176,0.0054173663117006
2.9589198506176384,0.0058448560055176
2.9876472278081008,0.0057650230554966
3.0163746049985636,0.0056792568250257
3.045101982189026,0.005645520667708
3.0738293593794883,0.0055391497911529
3.102556736569951,0.0054655925749785
3.1312841137604135,0.0054136143087094
3.160011490950876,0.0054812381592607
3.1887388681413387,0.0052332845257972
3.217466245331801,0.0053883386349182
3.2461936225222634,0.0052721152434165
3.274920999712726,0.0051586270222642
3.303648376903189,0.0052283994708093
3.332375754093651,0.0052350727076524
3.3611031312841133,0.0051365621835894
3.389830508474576,0.0051166322606565
3.4185578856650385,0.0050632099337522
3.447285262855501,0.0052766618065717
3.4760126400459637,0.0055683837817412
3.504740017236426,0.0052415012240335
3.5334673944268884,0.0050526986269642
3.562194771617351,0.0052351142935286
3.5909221488078136,0.0051138753238609
3.619649525998276,0.005083005498586
3.648376903188739,0.0050570373585792
3.677104280379201,0.0049810254931638
3.705831657569663,0.0050474195670168
3.7345590347601263,0.0051141332382653
3.7632864119505887,0.0051317243836596
3.792013789141051,0.0057287915844115
3.820741166331514,0.0056358826345704
3.849468543521976,0.0055702998859293
3.8781959207124386,0.0053343426281264
3.9069232979029014,0.0052505180880667
3.935650675093364,0.0050238536445526
3.964378052283826,0.0053494236265589
3.993105429474289,0.0052157669179307
4.021832806664751,0.0046842530528305
4.050560183855214,0.0055697515057524
4.0792875610456765,0.0052517776930687
4.108014938236138,0.0053358532190109
4.136742315426601,0.005286277292463
4.165469692617064,0.0053227594362797
4.194197069807526,0.0051955703954871
4.222924446997989,0.0050892548234849
4.251651824188452,0.0059780967484207
4.2803792013789135,0.004341561389712
4.309106578569376,0.0030027649766309
4.337833955759839,0.0009033844390339
4.366561332950301,0.04255042643532601
4.395288710140764,0.0944369458598309
4.424016087331227,0.0714233619329134
4.452743464521689,0.081194540013835
4.481470841712151,0.0874192764337414
4.510198218902614,0.085600454182248
4.538925596093076,0.0860950055991528
4.567652973283539,0.0840709930435682
4.596380350474002,0.0786368351814537
4.625107727664464,0.0566340288184631
4.6538351048549265,0.0312609929990233
4.682562482045389,0.0188330172093101
4.711289859235851,0.0175742637010455
4.740017236426314,0.0140466029594584
4.768744613616777,0.0092692300272438
4.797471990807239,0.0107323909962379
4.8261993679977016,0.0098372399622632
4.854926745188164,0.0079198278778407
4.883654122378626,0.0063645859109114
4.912381499569089,0.0058996392585417
4.941108876759552,0.0062308061804739
4.969836253950014,0.0065035593333964
4.998563631140477,0.0067259238668062
5.0272910083309394,0.0065040201094309
5.056018385521401,0.005868744458437
5.084745762711864,0.008065392462974
5.113473139902327,0.007433505749152
5.142200517092789,0.0063567571640688
5.170927894283252,0.006851304695947
5.199655271473714,0.0065128893602782
5.2283826486641765,0.0060467601073381
5.257110025854639,0.0060041832314619
5.285837403045101,0.0060040730900087
5.314564780235564,0.0055772745558506
5.343292157426027,0.0051675745602697
5.372019534616489,0.0054235945852674
5.4007469118069515,0.0052188125750372
5.429474288997414,0.0051396229792544
5.458201666187876,0.0048866036704778
5.486929043378339,0.0048900093327767
5.515656420568802,0.0054206767755696
5.544383797759264,0.0051631167201784
5.573111174949727,0.0054117382078118
5.601838552140189,0.0053807943854202
5.630565929330651,0.0052482411622678
5.659293306521114,0.0056578600480877
5.688020683711577,0.0054387515961457
5.716748060902039,0.0056809737659354
5.745475438092502,0.0057725707508248
5.7742028152829645,0.005639141509053
5.8029301924734265,0.0056379685167038
5.831657569663889,0.0058093274229083
5.860384946854352,0.0058345319661162
5.889112324044814,0.0057747358165191
5.917839701235277,0.0057411516678364
5.94656707842574,0.005537538662958
5.9752944556162015,0.0055694222520151
6.004021832806664,0.005514678427561
6.032749209997127,0.0055652730493632
6.061476587187589,0.0046873533360634
6.090203964378052,0.0039976839636069
6.118931341568515,0.0069074178018277
6.147658718758977,0.0057620697328672
6.176386095949439,0.0054201744881074
6.205113473139902,0.0057621059819056
6.233840850330364,0.0058239288735385
6.262568227520827,0.0062910074187176
6.29129560471129,0.0063741401133369
6.320022981901752,0.0061181368976256
6.3487503590922145,0.0060622852887764
6.377477736282677,0.0057964382758583
6.406205113473139,0.0059271115726265
6.434932490663602,0.0063201233128894
6.463659867854065,0.0061642118883589
6.492387245044527,0.0055368660267629
6.52111462223499,0.0057553018885843
6.549841999425452,0.0058289927332326
6.578569376615914,0.005803114956272
6.607296753806377,0.005511871022819
6.636024130996839,0.0056782946079945
6.664751508187302,0.0049489963596274
6.693478885377765,0.0048203367042547
6.722206262568227,0.0050087731209648
6.750933639758689,0.004963633543046
6.779661016949152,0.0050248979877949
6.808388394139614,0.0051618640284888
6.837115771330077,0.0052076243862976
6.86584314852054,0.0053236369195563
6.894570525711002,0.0054715643595732
6.9232979029014645,0.0052265594366779
6.952025280091927,0.0052894485779674
6.980752657282389,0.0053598757867633
7.009480034472852,0.0049036699887809
7.038207411663315,0.00525563408406
7.066934788853777,0.0053549826367939
7.09566216604424,0.0056001060066461
7.124389543234702,0.0053490729530478
7.153116920425164,0.0047059680179732
7.181844297615627,0.0052478696439337
7.21057167480609,0.0050921096086902
7.239299051996552,0.0054308980478962
7.268026429187015,0.0051466432618299
7.296753806377477,0.0047049193301289
7.325481183567939,0.0050474529380281
7.354208560758402,0.0049005133565861
7.382935937948865,0.0047007437338651
7.411663315139327,0.0047546855416143
7.44039069232979,0.0049409344234566
7.469118069520253,0.0048258866484224
7.497845446710715,0.005195490047385
7.526572823901177,0.0052497126516215
7.55530020109164,0.0053733213271512
7.584027578282102,0.005166947779011
7.612754955472565,0.0050605992132846
7.641482332663028,0.0055901783468084
7.67020970985349,0.005504371589051
7.698937087043952,0.0052843220909157
7.727664464234415,0.0054562351370206
7.756391841424877,0.0053755930738385
7.78511921861534,0.0054139310564191
7.813846595805803,0.0054312655229661
7.842573972996265,0.0050460948009988
7.871301350186728,0.0051543358560903
7.90002872737719,0.005177547936667
7.928756104567652,0.0052835218048106
7.957483481758115,0.0053225393226376
7.986210858948578,0.0054829120910858
8.01493823613904,0.0056438144341671
8.043665613329502,0.0055776636793847
8.072392990519965,0.0055445503286466
8.101120367710427,0.0056224207287921
8.12984774490089,0.0057090073899163
8.158575122091353,0.0054373978342743
8.187302499281815,0.0054883541443017
8.216029876472277,0.0036732743546516
8.24475725366274,0.0045876863996703
8.273484630853202,0.0095225675413765
8.302212008043664,0.017235228166228116
8.330939385234128,0.0185226292136342
8.35966676242459,0.0423683221019389
8.388394139615052,0.0247368893860972
8.417121516805516,0.0369542163045835
8.445848893995977,0.0435305686631871
8.47457627118644,0.0423175561888073
8.503303648376903,0.0438802704237316
8.532031025567365,0.0415034733009073
8.560758402757827,0.0373064062061616
8.58948577994829,0.0391375854008911
8.618213157138753,0.0279475835966355
8.646940534329215,0.020555548919219
8.675667911519678,0.0138920776181115
8.70439528871014,0.0148481495729616
8.733122665900602,0.0147667541673441
8.761850043091066,0.0122847455050965
8.790577420281528,0.0088575411567331
8.81930479747199,0.0088241856238331
8.848032174662453,0.0091471906557101
8.876759551852915,0.007916676433997
8.905486929043377,0.0067703728106086
8.93421430623384,0.0056423915025522
8.962941683424303,0.0057370359178556
8.991669060614765,0.0060088480061669
9.020396437805228,0.0059113055151738
9.04912381499569,0.0055122549392474
9.077851192186152,0.0055566902554751
9.106578569376616,0.0057699974908481
9.135305946567078,0.0055306770666251
9.16403332375754,0.005693111174981
9.192760700948003,0.0060879007589083
9.221488078138464,0.0060616510336014
9.250215455328927,0.0060764866446642
9.278942832519393,0.0058425206079666
9.307670209709851,0.0055148372564178
9.336397586900317,0.0054651214257133
9.36512496409078,0.0056845333096356
9.39385234128124,0.0056963078231541
9.422579718471702,0.005303727417091
9.451307095662166,0.005136842041032
9.480034472852628,0.0051588989473666
9.50876185004309,0.0054512143110304
9.537489227233554,0.0058569894935501
9.566216604424016,0.0059107816538732
9.594943981614476,0.0055183547693572
9.62367135880494,0.0055426855031828
9.652398735995405,0.0058373340889648
9.681126113185863,0.0058533675742609
9.709853490376329,0.0058469720102177
9.73858086756679,0.0060175364392726
9.767308244757253,0.0054408164780292
9.796035621947716,0.0053150138041557
9.824762999138178,0.0067498961132155
9.85349037632864,0.0061565016931816
9.882217753519104,0.0024932759094142
9.910945130709566,0.0096794853166265
9.939672507900028,0.0062703852452079
9.968399885090491,0.0053240928388242
9.997127262280951,0.0059969472505513
10.025854639471415,0.0058408061978353
10.05458201666188,0.0064153535157431
10.08330939385234,0.0055096723803488
10.112036771042805,0.0044300262928416
10.140764148233266,0.0068582064238848
10.169491525423728,0.0055851938090574
10.19821890261419,0.0064199182582582
10.226946279804654,0.0067306697783241
10.255673656995116,0.0065109387290856
10.284401034185578,0.0065944258273622
10.31312841137604,0.0066585372538993
10.341855788566503,0.0067549753145047
10.370583165756964,0.0065644198558781
10.399310542947427,0.0066717936588541
10.428037920137893,0.0061068138165158
10.456765297328351,0.0061496267516431
10.485492674518817,0.0059268902088316
10.51422005170928,0.0057336190014501
10.54294742889974,0.005815213847583
10.571674806090202,0.0051946450504683
10.600402183280666,0.0058475173122314
10.629129560471128,0.0057833775587827
10.65785693766159,0.0050196096035056
10.686584314852054,0.0050396486731629
10.715311692042516,0.0053361455331195
10.744039069232976,0.0053629704936951
10.77276644642344,0.0048593037174436
10.801493823613905,0.0054712991332384
10.830221200804363,0.0053738688827546
10.858948577994829,0.0051380124386061
10.88767595518529,0.0050193105167225
10.916403332375753,0.0051971247778872
10.945130709566216,0.0054307347840718
10.973858086756678,0.0053467043174838
11.00258546394714,0.0053514287708047
11.031312841137604,0.0052101741294033
11.060040218328066,0.0054996892918374
11.088767595518528,0.005786102464077
11.117494972708991,0.0056134922576774
11.146222349899451,0.0054528560870133
11.174949727089915,0.0055387154945476
11.20367710428038,0.0056432191700544
11.23240448147084,0.0057870961142191
11.261131858661305,0.0059082620996433
11.289859235851766,0.0057438457632154
11.318586613042228,0.0055038712648896
11.34731399023269,0.005507801602902
11.376041367423154,0.0057474105485524
11.404768744613616,0.0054859501658419
11.433496121804078,0.0056831581806234
11.462223498994542,0.0057365389735281
11.490950876185003,0.0054024310646084
11.519678253375464,0.0057329784139427
11.548405630565927,0.0062457499858424
11.577133007756393,0.0050705311643268
11.605860384946851,0.0059448806881601
11.634587762137317,0.0060548948196731
11.66331513932778,0.0054328325341924
11.69204251651824,0.0054207419467797
11.720769893708704,0.0061093993988653
11.749497270899166,0.0057148263729717
11.778224648089628,0.0053686972809184
11.806952025280092,0.0058344731969175
11.835679402470554,0.0054389496024842
11.864406779661016,0.005259915941385
11.89313415685148,0.0053926677304399
11.92186153404194,0.0052996800472419
11.950588911232405,0.0049817941207581
11.979316288422869,0.005142098052501
12.008043665613329,0.0053993046925915
12.03677104280379,0.0052399583727974
12.065498419994254,0.0054149418393877
12.094225797184716,0.0053871446622857
12.122953174375178,0.0053896119887005
12.151680551565642,0.0053475499390722
12.180407928756104,0.005267468808262
12.209135305946566,0.0051307281616085
12.23786268313703,0.0050985248953583
12.266590060327491,0.0047124839773267
12.295317437517951,0.0052874976563129
12.324044814708415,0.0056715724937851
12.35277219189888,0.0054236564487867
12.38149956908934,0.0059895751792291
12.410226946279804,0.005055914502402
12.438954323470266,0.0069026119308532
12.467681700660728,0.0057927995022736
12.496409077851192,0.0163291745411331
12.525136455041654,0.0193936437147304
12.553863832232116,0.0189159793314704
12.58259120942258,0.0330911261496409
12.611318586613042,0.0439186093313787
12.640045963803503,0.0465629386297136
12.668773340993967,0.0508772648779303
12.697500718184427,0.0532394336892656
12.726228095374893,0.0523160409352734
12.754955472565356,0.0486449046482967
12.783682849755817,0.0466799746123324
12.81241022694628,0.0449538498803269
12.841137604136742,0.0260800834635083
12.869864981327204,0.0294346605439879
12.898592358517666,0.021466288587977
12.92731973570813,0.0144583568360387
12.956047112898592,0.0151961033457987
12.984774490089054,0.0146895973541609
13.013501867279516,0.0123897604567799
13.04222924446998,0.0066669042661001
13.07095662166044,0.0060379102546452
13.099683998850905,0.0057055747165789
13.128411376041369,0.0056227284006634
13.157138753231829,0.0056035548757353
13.185866130422292,0.0053132198054788
13.214593507612754,0.0054726716247705
13.243320884803216,0.0052882622785004
13.272048261993678,0.0050245833591178
13.300775639184142,0.0053345068830007
13.329503016374604,0.0055222744306508
13.358230393565066,0.0054858014928512
13.38695777075553,0.0055234814190316
13.415685147945991,0.0056125782709466
13.444412525136451,0.0054729501394394
13.473139902326915,0.0052072294109788
13.50186727951738,0.0056646808081533
13.53059465670784,0.005696180036303
13.559322033898304,0.005001081829951
13.588049411088766,0.0052299198840342
13.616776788279228,0.0053344819127434
13.645504165469692,0.0057729132380832
13.674231542660154,0.0053500421118164
13.702958919850616,0.0053440399200895
13.73168629704108,0.0056643699398528
13.76041367423154,0.0054655810814312
13.789141051422003,0.0057058724426262
13.817868428612467,0.0049293719602055
13.846595805802927,0.0047853740527356
13.875323182993393,0.0053266155437502
13.904050560183856,0.0051304200695962
13.932777937374317,0.0050684399704944
13.96150531456478,0.004965032572079
13.990232691755242,0.0047760301425187
14.018960068945704,0.0056429476496688
14.047687446136166,0.0060465020751975
14.07641482332663,0.0060198396402774
14.105142200517092,0.0061967634938619
14.133869577707554,0.0063799605923846
14.162596954898016,0.0060351023401836
14.19132433208848,0.0063947405590106
14.22005170927894,0.0067595548533019
14.248779086469405,0.0058679292972768
14.277506463659869,0.0059771313216651
14.306233840850329,0.0061703195490126
14.334961218040792,0.0061517997881491
14.363688595231254,0.0060371549102924
14.392415972421716,0.0061240244192473
14.42114334961218,0.0063267775484358
14.449870726802642,0.0063651547475431
14.478598103993104,0.0062725227360506
14.507325481183567,0.0062868522262023
14.53605285837403,0.0069370887376762
14.564780235564491,0.0063858628921046
14.593507612754957,0.0068519830661576
14.622234989945415,0.006368868164626
14.65096236713588,0.006380683442642
14.679689744326344,0.0066712483077975
14.708417121516804,0.0064998650736774
14.737144498707266,0.0063152474390283
14.76587187589773,0.0059917748182515
14.794599253088192,0.0058307781373212
14.823326630278654,0.0062090204263371
14.852054007469118,0.0058773925779573
14.88078138465958,0.0059398008341286
14.90950876185004,0.00593009544456
14.938236139040503,0.0057637677538487
14.966963516230969,0.0056620702292418
14.995690893421427,0.0053828028475748
15.024418270611893,0.0060268608733713
15.053145647802356,0.0067245576785426
15.081873024992817,0.0062056306624577
15.11060040218328,0.0064132202875399
15.139327779373742,0.0056063340145393
15.168055156564204,0.005997582653661
15.196782533754668,0.00632835268331
15.22550991094513,0.0054432163376187
15.254237288135592,0.005147437252706
15.282964665326055,0.0054113106513061
15.311692042516515,0.0055235344559836
15.34041941970698,0.0053972854557695
15.369146796897445,0.0055395032503545
15.397874174087905,0.0057471234569916
15.426601551278369,0.0057312238731718
15.45532892846883,0.0057412506995222
15.484056305659292,0.0060111237619258
15.512783682849754,0.0055250659977931
15.541511060040218,0.0053815043210116
15.57023843723068,0.0055022265267909
15.598965814421142,0.0057397436055015
15.627693191611606,0.0061114082905882
15.656420568802067,0.0060948197561739
15.68514794599253,0.0059581656589825
15.713875323182991,0.0060441709342159
15.742602700373457,0.0060941616103721
15.771330077563915,0.0060677554553966
15.80005745475438,0.0060277802311982
15.828784831944844,0.0057106644347907
15.857512209135304,0.0050714274301337
15.886239586325768,0.0049952537641814
15.91496696351623,0.0052846768837259
15.943694340706692,0.0050452609333855
15.972421717897156,0.0053800476111106
16.001149095087616,0.0055884737688028
16.02987647227808,0.0057846080902621
16.058603849468543,0.00586231544215
16.087331226659003,0.0057416658622633
16.116058603849467,0.0057684886418956
16.14478598103993,0.0054373719893525
16.17351335823039,0.0057358792024584
16.202240735420855,0.0063352000983943
16.23096811261132,0.0058337600032706
16.25969548980178,0.0055052515020526
16.288422866992242,0.0080781980481938
16.317150244182706,1.5020869343834008e-06
16.345877621373166,0.017828652334617733
16.37460499856363,0.0282489511402995
16.403332375754093,0.0287164544877288
16.432059752944554,0.0364215567424973
16.460787130135017,0.0418987503907267
16.48951450732548,0.0440378531329242
16.51824188451594,0.0508448213172761
16.546969261706405,0.0513281276121759
16.57569663889687,0.0496401198809791
16.60442401608733,0.0458637192683325
16.633151393277792,0.0475804533692413
16.661878770468256,0.022554669787702
16.690606147658716,0.0243192689341487
16.71933352484918,0.0276576568228327
16.748060902039644,0.0166166991349212
16.776788279230104,0.0154683555039473
16.805515656420567,0.0130759099288427
16.83424303361103,0.0174331234341323
16.86297041080149,0.0198173572443227
16.891697787991955,0.0028864847505403
16.92042516518242,0.0077726709124465
16.94915254237288,0.0065860714902625
16.977879919563343,0.0074556558068012
17.006607296753806,0.007168424346407
17.035334673944266,0.0068114574421964
17.06406205113473,0.0067776347469464
17.092789428325194,0.0059412272716561
17.121516805515654,0.0060725154585921
17.150244182706118,0.0058996641217937
17.17897155989658,0.0046277685888912
17.20769893708704,0.0053082028494438
17.236426314277505,0.0056194995452363
17.26515369146797,0.0066813346585849
17.29388106865843,0.0058182084343764
17.322608445848893,0.0054957766204185
17.351335823039356,0.0066477105071975
17.380063200229817,0.0059791435239172
17.40879057742028,0.006084603433416
17.437517954610744,0.0061886491116825
17.466245331801204,0.0054399083503762
17.494972708991668,0.0052313059464981
17.52370008618213,0.005678615591906
17.55242746337259,0.005929472827586
17.581154840563055,0.0057758506056253
17.60988221775352,0.0057492903911436
17.63860959494398,0.005584056328499
17.667336972134443,0.0055844200222713
17.696064349324907,0.005816561754853
17.724791726515367,0.0051660123615649
17.75351910370583,0.0051624525448446
17.782246480896294,0.0055756849486964
17.810973858086754,0.0057108009808462
17.839701235277218,0.0056246216326846
17.86842861246768,0.005678964026547
17.897155989658142,0.0054442374251778
17.925883366848606,0.0053729919600558
17.95461074403907,0.0055765177411629
17.98333812122953,0.0055061226968427
18.012065498419993,0.0053942253495086
18.040792875610457,0.0054235367997684
18.069520252800917,0.0056475031418029
18.09824762999138,0.0058433695167705
18.126975007181844,0.005834249551987
18.155702384372304,0.0057535739071768
18.184429761562768,0.0055523400915856
18.213157138753232,0.0055038528772044
18.241884515943692,0.0055762296301871
18.270611893134156,0.0055108927284453
18.29933927032462,0.0053619563715097
18.32806664751508,0.0052163586517595
18.356794024705543,0.0051393113421772
18.385521401896007,0.005205462764835
18.414248779086467,0.0054570535177637
18.44297615627693,0.0054089786973242
18.47170353346739,0.0051298754991763
18.500430910657855,0.0055689244918608
18.52915828784832,0.0058757942026285
18.557885665038786,0.0055169230400199
18.58661304222924,0.0057279911686562
18.615340419419702,0.0059303271112592
18.64406779661017,0.0058121532661267
18.67279517380063,0.0060235245794937
18.701522550991093,0.0061833908171794
18.730249928181557,0.0056188005523413
18.758977305372017,0.0053943095862244
18.78770468256248,0.0058647655930716
18.816432059752945,0.0055552734633361
18.845159436943405,0.0057683793550012
18.87388681413387,0.0059169707838029
18.902614191324332,0.0053396929283212
18.931341568514792,0.0058372949067979
18.960068945705256,0.0057090884077393
18.98879632289572,0.005405299827103
19.01752370008618,0.0056006236288825
19.046251077276644,0.0059081442476994
19.074978454467107,0.0052888833321961
19.103705831657567,0.0052008317116867
19.13243320884803,0.0053910239558151
19.161160586038495,0.0052381998325693
19.189887963228955,0.0051493572758483
19.21861534041942,0.0055325934039228
19.24734271760988,0.0051164697629909
19.276070094800343,0.0050199677760659
19.30479747199081,0.0051517000155807
19.33352484918127,0.0049624057868093
19.36225222637173,0.0049324845933114
19.390979603562194,0.0052325137466671
19.419706980752657,0.0050700865508717
19.44843435794312,0.005052215980495
19.47716173513358,0.0053180076604929
19.505889112324045,0.0055233292423473
19.534616489514505,0.0057629965996664
19.56334386670497,0.005999173898505
19.592071243895433,0.0059698724339972
19.620798621085893,0.0055220006195074
19.649525998276356,0.0058981249265271
19.67825337546682,0.0062523926715782
19.70698075265728,0.0055329008605556
19.735708129847744,0.0053953981814894
19.764435507038208,0.0054876879324164
19.793162884228668,0.0052742465053301
19.82189026141913,0.0052642458852445
19.850617638609595,0.0054266620995079
19.879345015800055,0.0055227175748239
19.90807239299052,0.005580081768972
19.936799770180983,0.0056210832037031
19.965527147371443,0.0053618710031944
19.994254524561907,0.0051982137272677
20.02298190175237,0.0052724253876365
20.05170927894283,0.0048379565804634
20.080436656133298,0.00547331868402
20.10916403332376,0.0053017167955197
20.137891410514214,0.0043000768103138
20.16661878770468,0.00496082289256
20.195346164895145,0.0055510614050741
20.224073542085605,0.0058111419349576
20.25280091927607,0.0057945752748195
20.281528296466533,0.0059873691626301
20.310255673656993,0.0053641956724056
20.338983050847457,0.0058890892595221
20.36771042803792,0.0096885221134203
20.39643780522838,0.0050537050797706
20.425165182418844,0.021621877499435133
20.453892559609308,0.020709485107721772
20.482619936799768,0.0202006033814673
20.511347313990232,0.039992214476965
20.540074691180696,0.0276999880952723
20.568802068371156,0.0306905723088526
20.59752944556162,0.0341085310279696
20.62625682275208,0.0348259053331518
20.654984199942543,0.0396550036855031
20.683711577133007,0.0270405477611376
20.712438954323467,0.0290781174398647
20.74116633151393,0.0190196642407354
20.76989370870439,0.0211652231278236
20.798621085894855,0.019414748580807
20.82734846308532,0.0145421808434209
20.856075840275786,0.0116385207743492
20.88480321746624,0.010149943106759
20.913530594656702,0.0102674993385737
20.94225797184717,0.0106696833376697
20.97098534903763,0.0099218476102791
20.999712726228093,0.0086666629561793
21.028440103418557,0.0064162033816659
21.057167480609017,0.0066594413006817
21.08589485779948,0.0055046213423497
21.114622234989945,0.0070554973075532
21.143349612180405,0.0058380022852365
21.17207698937087,0.0056469986380509
21.200804366561332,0.0064340696333629
21.229531743751792,0.0066550949516936
21.258259120942256,0.0060452235192306
21.28698649813272,0.0065046832111517
21.31571387532318,0.0064071780619127
21.344441252513644,0.0063767249619239
21.373168629704107,0.0063509903520127
21.401896006894567,0.0059128318669183
21.43062338408503,0.0058910487121898
21.459350761275495,0.0056981263223484
21.488078138465955,0.0060470696354839
21.51680551565642,0.0054128829082514
21.54553289284688,0.0052878973629187
21.574260270037342,0.0054832902694753
21.60298764722781,0.0052158352901308
21.63171502441827,0.0052097565706974
21.66044240160873,0.0047847942949485
21.689169778799194,0.0045277752885251
21.717897155989657,0.0058125829389938
21.74662453318012,0.0049395604356631
21.77535191037058,0.0049985550827907
21.804079287561045,0.0053294358340427
21.832806664751505,0.0055500830897142
21.86153404194197,0.0057558345593136
21.890261419132433,0.0060233532369231
21.918988796322893,0.0058321790974952
21.947716173513356,0.0056666530257329
21.97644355070382,0.0059488604299952
22.00517092789428,0.0059065582107283
22.033898305084744,0.0055271431254152
22.062625682275208,0.005317796724952
22.091353059465668,0.0054676218661731
22.12008043665613,0.0048425874043444
22.148807813846595,0.0050066982718028
22.177535191037055,0.0051388501873438
22.20626256822752,0.005158735807489
22.234989945417983,0.0052257224282571
22.263717322608443,0.0054009741296193
22.292444699798907,0.0052951645418606
22.32117207698937,0.0048975523391208
22.34989945417983,0.0052914552592093
22.378626831370298,0.0051472677039013
22.40735420856076,0.0049246411685098
22.436081585751214,0.0051331462573762
22.46480896294168,0.0051815506034158
22.493536340132145,0.0050032130945027
22.522263717322605,0.0051587812225374
22.55099109451307,0.0054942134068374
22.579718471703533,0.0052716058173278
22.608445848893993,0.0050635923211581
22.637173226084457,0.0052623544280922
22.66590060327492,0.0050896788661339
22.69462798046538,0.0051549527890279
22.723355357655844,0.0052187476342926
22.752082734846308,0.0050699673066082
22.780810112036768,0.0049541391832743
22.809537489227232,0.0051217432465577
22.838264866417695,0.0052341585918114
22.866992243608156,0.0047036018583529
22.89571962079862,0.0048394998912896
22.924446997989083,0.0047751037496412
22.953174375179543,0.005055108775133
22.981901752370007,0.0053026765376434
23.01062912956047,0.0052087937844563
23.03935650675093,0.0052115733445659
23.06808388394139,0.0054392879573453
23.096811261131855,0.0052333486356245
23.12553863832232,0.005492690132844
23.154266015512786,0.0054716809810961
23.18299339270325,0.0060101511623766
23.211720769893702,0.0066522811334986
23.24044814708417,0.0032987364139047
23.269175524274633,0.0051658348789022
23.297902901465093,0.0051448083493459
23.326630278655557,0.0054509393978855
23.35535765584602,0.0053375198607382
23.38408503303648,0.0054421664112435
23.412812410226945,0.0055494212951199
23.44153978741741,0.0055846913533888
23.47026716460787,0.0054882193168568
23.498994541798332,0.0056108086520637
23.527721918988796,0.0053234571356344
23.556449296179256,0.0051601049803977
23.58517667336972,0.005589994405665
23.613904050560183,0.0053475860865673
23.642631427750644,0.005311234695209
23.671358804941107,0.007040678514435
23.70008618213157,0.0049275116873013
23.72881355932203,0.0055581442260894
23.757540936512495,0.0040367520338731
23.78626831370296,0.0068204659252304
23.81499569089342,0.0072592906543754
23.84372306808388,0.0059913145377514
23.872450445274342,0.0063209113332625
23.90117782246481,0.0050904039668282
23.92990519965527,0.0059345964590061
23.958632576845737,0.0059416784860215
23.987359954036194,0.005598447263622
24.016087331226657,0.005532498641103
24.04481470841712,0.0051591049470878
24.07354208560758,0.005372848396283
24.102269462798045,0.0055001759403626
24.13099683998851,0.005244198366995
24.15972421717897,0.0050527619645345
24.188451594369432,0.0053157045424674
24.217178971559896,0.0047040914388903
24.245906348750356,0.0047945716195985
24.27463372594082,0.0051682596955499
24.303361103131284,0.005247674105428
24.332088480321744,0.0049902217740617
24.360815857512208,0.0047751673694223
24.38954323470267,0.0056620223407241
24.41827061189313,0.0117697793583437
24.446997989083595,0.016278391186501064
24.47572536627406,0.02449909319090666
24.50445274346452,0.046167045288202
24.533180120654983,0.0315009900693867
24.561907497845446,0.035616330902282396
24.590634875035907,0.0538745671742453
24.61936225222637,0.0506275520929653
24.64808962941683,0.0337324880959675
24.676817006607298,0.0401370975991671
24.70554438379776,0.0396243498783431
24.73427176098822,0.0313264032366919
24.76299913817868,0.0281985762904674
24.791726515369145,0.0252106644525423
24.82045389255961,0.0269736992484609
24.84918126975007,0.0117876727212794
24.877908646940533,0.0133532853400111
24.906636024130997,0.0150441365814659
24.935363401321457,0.0129376302056301
24.96409077851192,0.0145595309122662
24.992818155702384,0.0145828648795591
25.021545532892844,0.0106280635705929
25.050272910083308,0.0108941726878631
25.07900028727377,0.0103978285131999
25.10772766446423,0.0084312637530491
25.136455041654695,0.0060036399853866
25.16518241884516,0.005995138629985
25.19390979603562,0.0051011677486879
25.222637173226083,0.005115015937183
25.251364550416547,0.0052745370963921
25.280091927607007,0.0050480154787254
25.30881930479747,0.0050450226709065
25.337546681987934,0.0058658911064047
25.36627405917839,0.0053023638071403
25.395001436368855,0.0053888130362006
25.42372881355932,0.0062516662543338
25.452456190749785,0.0058708687017701
25.48118356794025,0.0062129547673927
25.50991094513071,0.0050989320043413
25.53863832232117,0.0054211839370738
25.567365699511633,0.0053604233186955
25.596093076702097,0.0056007288812357
25.624820453892557,0.0054543955479069
25.65354783108302,0.0052758688831113
25.682275208273484,0.0053988524481807
25.711002585463945,0.0052874975914454
25.73972996265441,0.0051622771910222
25.768457339844872,0.0054258098320394
25.797184717035332,0.0052638534565874
25.825912094225796,0.0050531818903717
25.85463947141626,0.004753768376054
25.88336684860672,0.0050843834871599
25.912094225797183,0.0053051614884166
25.940821602987647,0.0058153419967384
25.969548980178107,0.0061207042078129
25.99827635736857,0.0056314194986647
26.027003734559035,0.0058648536846883
26.055731111749495,0.0063766239167116
26.08445848893996,0.006412919962057
26.113185866130426,0.0064291134932371
26.14191324332088,0.0068411020126079
26.170640620511342,0.0066062909951169
26.19936799770181,0.0062378970553549
26.22809537489227,0.0063477078621469
26.256822752082737,0.0064652528164811
26.285550129273197,0.0060881237004717
26.314277506463657,0.0059610308583486
26.34300488365412,0.0058772654214654
26.371732260844585,0.0059374881498764
26.400459638035045,0.0054768833953734
26.42918701522551,0.0058629809611729
26.457914392415972,0.0046375540825842
26.486641769606432,0.0046754309322484
26.515369146796896,0.0051953187595644
26.544096523987356,0.0047082924484548
26.57282390117782,0.0052174174989274
26.601551278368284,0.0050571207569417
26.630278655558744,0.00509184006388
26.659006032749208,0.0057691715164853
26.68773340993967,0.0057424526089759
26.71646078713013,0.0055215743576371
26.745188164320595,0.0057630542360008
26.77391554151106,0.0059750843629652
26.80264291870152,0.0053648654573226
26.831370295891983,0.0057592216635968
26.860097673082446,0.0060828411884839
26.888825050272903,0.0057579916243787
26.91755242746337,0.0056384956272499
26.94627980465383,0.0061213502597715
26.975007181844298,0.0059793730454677
27.00373455903476,0.005754304241857
27.03246193622522,0.0058751778663776
27.06118931341568,0.005474285949812
27.089916690606145,0.0054758130900833
27.11864406779661,0.0056147388484274
27.14737144498707,0.0054626554708455
27.176098822177533,0.0053725682200547
27.204826199367997,0.005173437372022
27.233553576558457,0.0048106135168938
27.26228095374892,0.0046900846574818
27.291008330939384,0.0052511743860689
27.319735708129844,0.0054398558999553
27.348463085320308,0.0052239447602593
27.37719046251077,0.0053962845837366
27.40591783970123,0.0053458372117188
27.434645216891695,0.0057344047212826
27.46337259408216,0.0059183088380475
27.49209997127262,0.0059185223281823
27.520827348463083,0.0056263825947095
27.549554725653547,0.0056304666969334
27.578282102844007,0.0057162052399336
27.60700948003447,0.0055422717733118
27.635736857224934,0.0053232499315707
27.66446423441539,0.0053037434405152
27.693191611605855,0.005347166126017
27.72191898879632,0.0052018653437095
27.750646365986785,0.0053766877374845
27.77937374317725,0.005382748191025
27.80810112036771,0.005358338484058
27.83682849755817,0.0054280761942618
27.865555874748633,0.0054863349450985
27.894283251939097,0.0055447164267128
27.923010629129557,0.0055347567535151
27.95173800632002,0.0053305187577779
27.980465383510484,0.0053189311970954
28.009192760700945,0.0052894814180159
28.03792013789141,0.0054523434256828
28.066647515081872,0.0055242154487429
28.095374892272332,0.0049796884319146
28.124102269462796,0.0053958897593193
28.15282964665326,0.0054197856799683
28.18155702384372,0.0055271831658326
28.210284401034183,0.0054354335024504
28.239011778224647,0.0055517909870052
28.267739155415107,0.0053478438922603
28.29646653260557,0.0053775638158746
28.325193909796035,0.0055290375600179
28.353921286986495,0.0055051666448716
28.38264866417696,0.0053579830963551
28.411376041367426,0.0058563610872897
28.44010341855788,0.0063038454166788
28.468830795748342,0.0053258745583184
28.49755817293881,0.006442617056633
28.52628555012927,0.0131322998228572
28.555012927319737,0.0332753918421648
28.583740304510197,0.0326737384105623
28.612467681700657,0.0394380889036355
28.64119505889112,0.037642229823436
28.669922436081585,0.0388578839870048
28.698649813272045,0.0503830679930889
28.72737719046251,0.0372777806009284
28.756104567652972,0.0511014508141624
28.784831944843432,0.03535631064261451
28.813559322033896,0.0230724918570465
28.84228669922436,0.0294935403701078
28.87101407641482,0.0208095322203531
28.899741453605284,0.0214869950389416
28.928468830795747,0.0125551002433412
28.957196207986208,0.0171515483046537
28.98592358517667,0.0180776412675945
29.014650962367135,0.0150903623375807
29.043378339557595,0.0141539725131995
29.07210571674806,0.0143767512047202
29.10083309393852,0.0144535241464918
29.129560471128983,0.0145233931179654
29.158287848319446,0.0116044375204172
29.18701522550991,0.0079240751621274
29.21574260270037,0.0073443463485027
29.24446997989083,0.0072689773951345
29.273197357081298,0.0065379267705251
29.30192473427176,0.0060837487949381
29.33065211146222,0.0062877716821709
29.359379488652685,0.0061673986540486
29.388106865843145,0.0057453532460972
29.41683424303361,0.0058899607245007
29.445561620224073,0.0057382862186498
29.474288997414533,0.0057164535109054
29.503016374604996,0.0057108346599277
29.53174375179546,0.0056144961533901
29.56047112898592,0.0056567052648359
29.589198506176384,0.0057478458382381
29.617925883366848,0.0055447751114001
29.646653260557308,0.0049040599230152
29.67538063774777,0.0050085454807453
29.704108014938235,0.0050668145492312
29.732835392128695,0.0050798944862608
29.76156276931916,0.0052677149353203
29.790290146509623,0.0048722935863088
29.819017523700083,0.004844137829077
29.847744900890547,0.0058502258291078
29.87647227808101,0.0053244600471129
29.90519965527147,0.0054698352507093
29.933927032461938,0.0058464944392276
29.9626544096524,0.0059033854416132
29.991381786842854,0.0057500466373606
30.02010916403332,0.0065677043351716
30.048836541223785,0.0064525557333435
30.07756391841425,0.0065569836250487
30.10629129560471,0.0069678401193786
30.135018672795173,0.0071148243744209
30.163746049985633,0.0065001645487399
30.192473427176097,0.0063451426606105
30.22120080436656,0.005981561293901
30.24992818155702,0.0059125832592448
30.278655558747484,0.0063936646070555
30.307382935937948,0.0058918605575333
30.336110313128408,0.0057065540022577
30.364837690318872,0.0054643739484737
30.393565067509336,0.0058459337924598
30.422292444699796,0.0058693956535915
30.45101982189026,0.0052549499553946
30.479747199080723,0.005210220089989
30.508474576271183,0.0048821494611814
30.537201953461647,0.0050990460429703
30.56592933065211,0.0052346260771928
30.59465670784257,0.005243373302523
30.623384085033035,0.0053009432411327
30.6521114622235,0.0053846783971268
30.68083883941396,0.0049401880842364
30.709566216604426,0.0059987877146373
30.73829359379489,0.0063305983132007
30.767020970985342,0.0056449396358236
30.79574834817581,0.0059025477298572
30.824475725366273,0.0066049537184214
30.853203102556733,0.00590046634985
30.881930479747197,0.0057844977593728
30.91065785693766,0.0064589805227732
30.93938523412812,0.0064026913764949
30.968112611318585,0.0060715942342582
30.99683998850905,0.0054370554078502
31.02556736569951,0.0055792793943594
31.054294742889972,0.0050194160917487
31.083022120080436,0.0054054298916602
31.111749497270896,0.0051629889681767
31.14047687446136,0.0057484959368989
31.169204251651824,0.0050855903513454
31.197931628842284,0.0051850736145034
31.226659006032747,0.0055187948436478
31.25538638322321,0.005660290106211
31.28411376041367,0.0056074001900268
31.312841137604135,0.0055548156538178
31.3415685147946,0.0054964442338512
31.37029589198506,0.0052973540758162
31.39902326917552,0.0048093148772265
31.427750646365983,0.0047541132336056
31.456478023556446,0.0052115669567842
31.48520540074691,0.004839118251712
31.513932777937377,0.0048621525652621
31.54266015512783,0.0054593063649211
31.571387532318298,0.005269246968505
31.60011490950876,0.004694579184041
31.62884228669922,0.0060295876914524
31.657569663889685,0.0056610594062455
31.68629704108015,0.0051550214645725
31.71502441827061,0.0054306754269311
31.743751795461073,0.0055425150947326
31.772479172651536,0.0045731777157464
31.801206549841996,0.0053106128855285
31.82993392703246,0.0049761721613618
31.858661304222924,0.0047322155353031
31.887388681413384,0.0048608843304637
31.916116058603848,0.0050631078234362
31.94484343579431,0.0053281287966738
31.97357081298477,0.0054673757646792
32.00229819017523,0.0058160893071974
32.031025567365695,0.0049229517209934
32.05975294455616,0.0055399152615408
32.08848032174662,0.005800590618325
32.11720769893709,0.0053808425440239
32.14593507612755,0.0054087234645579
32.17466245331801,0.0054877190681818
32.20338983050847,0.0054199810422036
32.232117207698934,0.0052870734876531
32.2608445848894,0.0052544858940796
32.28957196207986,0.0052629960210085
32.318299339270325,0.0047673491517997
32.34702671646078,0.0049067226620994
32.375754093651246,0.00515496842464
32.40448147084171,0.0047750776319826
32.43320884803217,0.0050275512546236
32.46193622522264,0.0076449890482605
32.4906636024131,0.004533610964998
32.51939097960356,0.0007095203706197
32.54811835679402,0.0224590888809649
32.576845733984484,0.028741390426175
32.60557311117495,0.0407379074795292
32.63430048836541,0.0397257134393024
32.663027865555875,0.041404408431439
32.69175524274633,0.0686490351990254
32.720482619936796,0.0689864244699548
32.74920999712726,0.0723794119967494
32.77793737431772,0.0693920359869033
32.80666475150819,0.0658209571624338
32.83539212869865,0.0652390649761291
32.86411950588911,0.0559754409468168
32.89284688307957,0.055878159285822
32.921574260270035,0.0323418405325519
32.9503016374605,0.0407361763446717
32.97902901465096,0.0434506246966217
33.007756391841426,0.03278517255480613
33.03648376903188,0.035742093153573
33.065211146222346,0.0239692930419241
33.09393852341281,0.0204710075594944
33.12266590060327,0.0182702549870446
33.15139327779374,0.0140486201704294
33.1801206549842,0.0140949815111217
33.20884803217466,0.0129240452504791
33.23757540936512,0.0164529314659976
33.266302786555585,0.0067189590656284
33.29503016374605,0.0089553384482792
33.32375754093651,0.0119950887041465
33.352484918126976,0.0115023020716088
33.38121229531743,0.0106078772915828
33.409939672507896,0.0102858658599236
33.43866704969836,0.0098043565443183
33.46739442688882,0.0094504225619891
33.49612180407929,0.009810840546269
33.52484918126975,0.009793873891125
33.55357655846021,0.0095245482110549
33.58230393565067,0.0058174039779452
33.611031312841135,0.0038460591658956
33.6397586900316,0.0096965203021751
33.66848606722206,0.0073797098328594
33.697213444412526,0.0068765623341048
33.72594082160298,0.0073755687803135
33.754668198793446,0.0072063198276324
33.78339557598391,0.0074237762335198
33.812122953174374,0.0070083865611195
33.84085033036484,0.0064372240052722
33.8695777075553,0.0061293477650495
33.89830508474576,0.0063279408537341
33.92703246193622,0.0066708791462889
33.955759839126685,0.0064996535783332
33.98448721631715,0.0063630473880342
34.01321459350761,0.006662846791908
34.041941970698076,0.0068217625494408
34.07066934788853,0.0067923765897661
34.099396725078996,0.006417926889839
34.12812410226946,0.0058413588089415
34.156851479459924,0.00556103153036
34.18557885665039,0.0048952400691895
34.21430623384085,0.006752208863073
34.24303361103131,0.0054654723104782
34.27176098822177,0.0058197155945355
34.300488365412235,0.0063636609232112
34.3292157426027,0.0062448562635847
34.35794311979316,0.0061678362780981
34.386670496983626,0.0061072531220481
34.41539787417408,0.0058699227547473
34.44412525136455,0.0058875743625992
34.47285262855501,0.0060862967083047
34.501580005745474,0.0054658047912425
34.53030738293594,0.0049720827228685
34.5590347601264,0.0053812159503879
34.58776213731686,0.0054896168776028
34.61648951450732,0.0055025646754888
34.645216891697785,0.0056772198568408
34.67394426888825,0.0054456525304703
34.70267164607871,0.0050737575899456
34.73139902326918,0.0061127719626466
34.76012640045963,0.0057601733282653
34.7888537776501,0.0056519858940615
34.81758115484056,0.0057550096827603
34.846308532031024,0.0060287090004504
34.87503590922149,0.0058971437222338
34.90376328641195,0.0058034153452385
34.93249066360241,0.0068600515345796
34.96121804079287,0.0061076380760483
34.989945417983336,0.0066224443591279
35.0186727951738,0.0064547448719524
35.04740017236426,0.0062097768813298
35.07612754955473,0.0068466190437586
35.10485492674518,0.0068855330804854
35.13358230393565,0.0056651399581648
35.16230968112611,0.0059408059567011
35.191037058316574,0.005186497829352
35.21976443550704,0.0071131930657198
35.2484918126975,0.006595997315099
35.27721918988796,0.0064222820055888
35.30594656707842,0.0063196659515231
35.334673944268886,0.0060242440368354
35.36340132145935,0.0063061553372375
35.39212869864981,0.0063656487222407
35.42085607584027,0.006146505009718
35.44958345303073,0.0059752191447935
35.4783108302212,0.0059915075484638
35.50703820741166,0.0058996454167205
35.535765584602125,0.0060471110573084
35.56449296179259,0.0061075653695135
35.593220338983045,0.0060868947905375
35.62194771617351,0.0059850326728858
35.65067509336397,0.0055573911744521
35.679402470554436,0.0057284103934155
35.7081298477449,0.0061931040442118
35.73685722493536,0.0057134726624262
35.76558460212582,0.0058545200693436
35.794311979316284,0.0058760001240479
35.82303935650675,0.005693790243327
35.85176673369721,0.0058886365853265
35.880494110887675,0.0060404994114116
35.90922148807814,0.0058980591542781
35.937948865268595,0.0057044677053537
35.96667624245906,0.0055935398561229
35.99540361964952,0.0055351829506884
36.024130996839986,0.005733724686363
36.05285837403045,0.0061468666281684
36.08158575122091,0.0057250338878201
36.11031312841137,0.0048813250404545
36.139040505601834,0.0073718301579926
36.1677678827923,0.0063844479942487
36.19649525998276,0.0063994743511595
36.225222637173225,0.0065912519224344
36.25395001436369,0.0066118314693911
36.282677391554145,0.006741587151825
36.31140476874461,0.0066308969686591
36.34013214593507,0.0068551299645861
36.368859523125536,0.0046923660721827
36.397586900316,0.0061256586891945
36.426314277506464,0.0064534538531769
36.45504165469692,0.0002664797216365
36.483769031887384,0.01902014004135338
36.51249640907785,0.0213088776311135
36.54122378626831,0.0393835356404361
36.569951163458775,0.04058283471256278
36.59867854064924,0.0532124141822162
36.627405917839695,0.0626421035640007
36.65613329503016,0.0721381423278437
36.68486067222062,0.0706915561588385
36.713588049411086,0.0696329147935057
36.74231542660155,0.0740978911689834
36.771042803792014,0.0765904273109653
36.79977018098247,0.0522752711817924
36.828497558172934,0.0521829564129126
36.8572249353634,0.0336065169908234
36.88595231255386,0.0261630986574989
36.914679689744325,0.0264668050832864
36.94340706693479,0.0215578257583764
36.972134444125246,0.0203315973858333
37.00086182131571,0.0181142901532123
37.02958919850617,0.0118028575222473
37.05831657569664,0.0130991018575199
37.0870439528871,0.0181460952649084
37.11577133007757,0.013222824630710514
37.14449870726802,0.0127229093023951
37.17322608445848,0.0124652648118535
37.20195346164895,0.0111007190253389
37.23068083883941,0.0114844212241344
37.259408216029875,0.010840188009777
37.28813559322034,0.0110530846088888
37.3168629704108,0.0110503509330408
37.34559034760126,0.009442525322304
37.37431772479172,0.0067705907758151
37.40304510198219,0.0052719840811655
37.43177247917265,0.0077534614913811
37.460499856363114,0.0068143547286554
37.48922723355357,0.006738420015693
37.517954610744034,0.0069291602885125
37.5466819879345,0.0067806406829472
37.57540936512496,0.0068995509442802
37.604136742315426,0.0065357348863917
37.63286411950589,0.0066648713952467
37.661591496696346,0.0061972798627614
37.69031887388681,0.0054598205331045
37.71904625107727,0.005331760472237
37.74777362826774,0.0057844179628077
37.7765010054582,0.0066142512104638
37.805228382648664,0.0067190159032998
37.83395575983912,0.0068749068603797
37.862683137029585,0.0065451317516962
37.89141051422005,0.0075109225104058
37.92013789141051,0.0071154419959066
37.948865268600976,0.0069511560051932
37.97759264579144,0.007123802377454
38.006320022981896,0.0068933123727806
38.03504740017236,0.0065927620194136
38.06377477736282,0.0063820369135437
38.09250215455329,0.0066082353418879
38.12122953174375,0.0068081436207857
38.149956908934215,0.006430056255997
38.17868428612467,0.00614443611563
38.207411663315135,0.0068088756528128
38.2361390405056,0.0065925126010564
38.26486641769606,0.0064484538434991
38.293593794886526,0.0065273468195526
38.32232117207699,0.0066389877946128
38.351048549267446,0.0058891328576769
38.37977592645791,0.0058649487618562
38.408503303648374,0.006235403991217
38.43723068083884,0.006360273094911
38.4659580580293,0.0066094330731792
38.494685435219765,0.0056980018320076
38.52341281241022,0.0055543146011286
38.552140189600685,0.0059529968288095
38.58086756679115,0.0057911238718177
38.60959494398161,0.0055815455988817
38.63832232117208,0.0059287135456674
38.66704969836254,0.0061744447603379
38.69577707555299,0.0052576295423885
38.72450445274346,0.0058054803039114
38.75323182993392,0.0057536430112646
38.78195920712439,0.0057123643485085
38.81068658431485,0.0060167864144949
38.839413961505315,0.0060802280009056
38.86814133869577,0.006062216161629
38.896868715886235,0.006113717459462
38.9255960930767,0.0061226922610274
38.95432347026716,0.0059711501651766
38.983050847457626,0.0060589559502908
39.01177822464809,0.0067046218620913
39.04050560183855,0.0053230644944122
39.06923297902901,0.0055482555765638
39.097960356219474,0.0062780884547266
39.12668773340994,0.0057110791966686
39.1554151106004,0.0055954614009017
39.184142487790865,0.0060205331764889
39.21286986498132,0.0059426368811099
39.241597242171785,0.0060190667632844
39.27032461936225,0.0061439085122471
39.29905199655271,0.0064217561837863
39.32777937374318,0.0055447285234758
39.35650675093364,0.0061871936684833
39.3852341281241,0.0054803381268969
39.41396150531456,0.0053307089063101
39.442688882505024,0.0053992072432278
39.47141625969549,0.0054062385311989
39.50014363688595,0.0053863094732187
39.528871014076415,0.0057163156679693
39.55759839126687,0.0056716234951793
39.586325768457336,0.0056515789782986
39.6150531456478,0.0063084092279716
39.64378052283826,0.0063960796395473
39.67250790002873,0.0058924882016386
39.70123527721919,0.0071111994060421
39.72996265440965,0.0063560971734017
39.75869003160011,0.006242720103553
39.787417408790574,0.0061613960799115
39.81614478598104,0.0060418377264765
39.8448721631715,0.0059509578711575
39.873599540361965,0.0058049385216392
39.90232691755242,0.0056539016639089
39.931054294742886,0.0055770780580111
39.95978167193335,0.005513132902069
39.98850904912381,0.0054690354566983
40.01723642631428,0.0055429932879627
40.04596380350474,0.0053762262263624
40.0746911806952,0.0058806799356211
40.10341855788566,0.0057977025110507
40.132145935076124,0.0053579442541065
40.16087331226659,0.0056033086767135
40.18960068945705,0.0057594176930874
40.21832806664752,0.0060282418464803
40.24705544383797,0.0064090047433044
40.27578282102843,0.004995372243814
40.3045101982189,0.0069235818395736
40.33323757540936,0.0061190397261254
40.36196495259983,0.0056268974415448
40.39069232979029,0.0059515193881925
40.41941970698075,0.0057844224719455
40.44814708417121,0.0058958635589149
40.476874461361675,0.0057111541793907
40.50560183855214,0.0057582067691426
40.5343292157426,0.0061491698277661
40.563056592933066,0.0061279164136388
40.59178397012352,0.0061817880984541
40.620511347313986,0.0063024730430085
40.64923872450445,0.0059734664615417
40.67796610169491,0.0065476166741258
40.70669347888538,0.0079688149757344
40.73542085607584,0.0073886684738438
40.7641482332663,0.0239195141091783
40.79287561045676,0.0325126918708894
40.821602987647225,0.0473573611866018
40.85033036483769,0.0561152479148357
40.87905774202815,0.0602116609191983
40.907785119218616,0.0649780162695141
40.93651249640907,0.0651372966715085
40.965239873599536,0.0738990581592858
40.99396725079,0.0783957359788483
41.022694627980464,0.0678966378517357
41.05142200517093,0.0630092537987825
41.08014938236139,0.0561361337074659
41.10887675955185,0.0450282227747746
41.13760413674231,0.0330245822603161
41.166331513932775,0.0242362515880577
41.19505889112324,0.019435684367163
41.2237862683137,0.0168765823423422
41.25251364550416,0.015359819678995
41.28124102269462,0.0148723275828342
41.309968399885086,0.0153503536474615
41.33869577707555,0.0130104018322405
41.367423154266014,0.0101978923670175
41.39615053145648,0.0113865272236517
41.424877908646934,0.0072967210284548
41.4536052858374,0.0079083857582795
41.48233266302786,0.005562812090304
41.511060040218325,0.0068726916622492
41.53978741740879,0.0067659071912244
41.56851479459925,0.0060268389322716
41.59724217178971,0.0057893109824084
41.62596954898017,0.0058386901380276
41.65469692617064,0.0061318498103043
41.6834243033611,0.006991057558028
41.71215168055157,0.0038453116596839
41.74087905774203,0.0055931661374151
41.76960643493248,0.0066268099955153
41.79833381212295,0.005855760053601
41.82706118931341,0.0057519053857454
41.855788566503875,0.0060949366901368
41.88451594369434,0.0064707454797116
41.9132433208848,0.0066291218046277
41.94197069807526,0.0067831367984745
41.97069807526572,0.0064956384094459
41.99942545245619,0.0063825502297263
42.02815282964665,0.0062037960078607
42.056880206837114,0.006374821142931
42.08560758402758,0.0059523950991845
42.114334961218034,0.0059545113594589
42.1430623384085,0.0061704714193735
42.17178971559896,0.0059815854489454
42.200517092789426,0.0058663087130548
42.22924446997989,0.0058285443116607
42.25797184717035,0.005873615329846
42.28669922436081,0.0058381666918114
42.31542660155127,0.0055413405862166
42.34415397874174,0.0054887826803042
42.3728813559322,0.0053876160763221
42.401608733122664,0.0055803588868015
42.43033611031313,0.0056160834042528
42.459063487503585,0.0053992540480013
42.48779086469405,0.0053926249381518
42.51651824188451,0.0053439146821878
42.545245619074976,0.0052962594465393
42.57397299626544,0.0054321316841017
42.6027003734559,0.0056928346908331
42.63142775064636,0.0051931189707427
42.66015512783682,0.0052150129237342
42.68888250502729,0.005324270666573
42.71760988221775,0.0052115595091444
42.746337259408214,0.0048159137593714
42.77506463659868,0.0062619066301742
42.803792013789135,0.0056371412720138
42.8325193909796,0.0055109822897024
42.86124676817006,0.0055573780370441
42.889974145360526,0.0055691749746995
42.91870152255099,0.0060680290037538
42.94742889974145,0.0075165310531589
42.97615627693191,0.0057365193320252
43.004883654122374,0.0055258266720554
43.03361103131284,0.0063885824724869
43.0623384085033,0.0062772831639653
43.091065785693765,0.0061716865577931
43.11979316288423,0.00619967725408
43.148520540074685,0.0060255860647996
43.17724791726515,0.0050673650363613
43.20597529445561,0.0052581354103475
43.23470267164608,0.0052167467082817
43.26343004883654,0.004990362733906
43.292157426027,0.0051794756387455
43.32088480321746,0.0050053146189758
43.34961218040792,0.0050041966612666
43.37833955759839,0.0056898917217849
43.40706693478885,0.0055872095270107
43.435794311979315,0.0054343274196246
43.46452168916978,0.00548298992812
43.493249066360235,0.0055049529413193
43.5219764435507,0.0053177003483417
43.55070382074116,0.0052156006453161
43.579431197931626,0.0050705525559538
43.60815857512209,0.0050396896271011
43.636885952312554,0.0051553362967211
43.66561332950301,0.0052133165439107
43.694340706693474,0.0052844124133416
43.72306808388394,0.0052448881504853
43.7517954610744,0.005277698954711
43.780522838264865,0.0054356401393296
43.80925021545533,0.0050518440004146
43.837977592645785,0.0052677804215596
43.86670496983625,0.005570339611836
43.89543234702671,0.0058317912223979
43.924159724217176,0.0058742264077616
43.95288710140764,0.0061960950043858
43.981614478598104,0.0061672718585071
44.01034185578856,0.0063091435104729
44.039069232979024,0.0065198550451848
44.06779661016949,0.0063945641282253
44.09652398735995,0.0058117684192039
44.125251364550415,0.0056308441979589
44.15397874174088,0.0051345556001549
44.182706118931335,0.0053502325468466
44.2114334961218,0.0058159427823986
44.24016087331226,0.0054170057407205
44.26888825050273,0.0054446406498143
44.29761562769319,0.0051740230773322
44.326343004883654,0.0052248042600785
44.35507038207411,0.0055190064468893
44.383797759264574,0.0053333049916788
44.41252513645504,0.0055534416182072
44.4412525136455,0.0068628045564709
44.469979890835965,0.0059722685792997
44.49870726802643,0.0068604406650131
44.527434645216886,0.00524703279693
44.55616202240735,0.0058740894709753
44.58488939959781,0.0061782383178778
44.61361677678828,0.0059087421472271
44.64234415397874,0.0050777167294123
44.6710715311692,0.0052447216287873
44.69979890835966,0.0050874690304192
44.72852628555013,0.0050868430669234
44.75725366274059,0.0055033148262214
44.78598103993105,0.0053888024895261
44.81470841712152,0.012251237728251
44.84343579431198,0.0093194291627979
44.87216317150243,0.0090700263598621
44.9008905486929,0.0549405747879626
44.92961792588336,0.0430256541854546
44.95834530307383,0.0465476024887902
44.98707268026429,0.0463752895413021
45.015800057454754,0.048820622845792
45.04452743464521,0.0466388845800677
45.073254811835675,0.0410183429621161
45.10198218902614,0.0369580245016646
45.1307095662166,0.0299920633089594
45.159436943407066,0.0246132324773147
45.18816432059753,0.0238173037636618
45.216891697787986,0.0158609192988827
45.24561907497845,0.0150114470682504
45.27434645216891,0.0141309173597186
45.30307382935938,0.0131300872409951
45.33180120654984,0.0078793802630629
45.360528583740304,0.0071492658998602
45.38925596093076,0.0079820865637486
45.417983338121225,0.007167019560791
45.44671071531169,0.0068570438068542
45.47543809250215,0.0067766423887909
45.504165469692616,0.0067075868686424
45.53289284688308,0.0062841848214612
45.561620224073536,0.0055626037747777
45.590347601264,0.0053048438967158
45.619074978454464,0.005374186055383
45.64780235564493,0.0053453076799226
45.67652973283539,0.0054416304988346
45.705257110025855,0.0055422419670956
45.73398448721631,0.0053762689337201
45.762711864406775,0.0055030358930403
45.79143924159724,0.0054430625881322
45.8201666187877,0.0054839397123496
45.848893995978166,0.0055906012057486
45.87762137316863,0.0055756151232596
45.906348750359086,0.0056446179538675
45.93507612754955,0.0058720898141833
45.963803504740014,0.006093484573463
45.99253088193048,0.0061638408222947
46.02125825912094,0.0061461300547976
46.049985636311405,0.0064279604581621
46.07871301350186,0.0063829634163046
46.107440390692325,0.0060883994651739
46.13616776788279,0.0060763607291208
46.16489514507325,0.0059723949879797
46.19362252226371,0.006082744625407
46.22234989945418,0.0057949459739258
46.25107727664464,0.0057186930771159
46.2798046538351,0.0057497041191549
46.30853203102557,0.0054488848457536
46.33725940821603,0.0054337897383557
46.36598678540649,0.0053877677600643
46.394714162596955,0.0052657434811224
46.42344153978741,0.0054746382562647
46.452168916977875,0.005299884635083
46.48089629416834,0.0045714576696907
46.5096236713588,0.0064409428725161
46.538351048549266,0.0062432511372812
46.56707842573973,0.0060254331925787
46.59580580293019,0.0057406871061071
46.62453318012065,0.0058424553258807
46.653260557311114,0.005798342553145
46.68198793450158,0.0058257345279573
46.71071531169204,0.0059013303032393
46.739442688882505,0.0049010390659057
46.76817006607296,0.0048523525379086
46.796897443263425,0.0052794576030545
46.82562482045389,0.005542915589327
46.85435219764435,0.0055421141389522
46.88307957483482,0.0058404174211486
46.91180695202528,0.005276852115617
46.94053432921574,0.0054216157926746
46.9692617064062,0.0062313331464759
46.997989083596664,0.0054822015325735
47.02671646078713,0.0018631488281946
47.05544383797759,0.0130079315353558
47.08417121516805,0.0113694887294117
47.11289859235851,0.0081152033412614
47.141625969548976,0.0091320363119705
47.17035334673944,0.0092916411124561
47.1990807239299,0.0090586503379454
47.22780810112037,0.0087747996572257
47.25653547831082,0.006810441790027
47.28526285550129,0.0059064772655629
47.31399023269175,0.0049416224715723
47.342717609882214,0.0043363278913787
47.37144498707268,0.005233781079547
47.40017236426314,0.0053983998508762
47.4288997414536,0.0051312336417606
47.45762711864406,0.0058800240389632
47.486354495834526,0.00579004411899
47.51508187302499,0.0065264573947328
47.54380925021545,0.0082258829226233
47.57253662740592,0.008715392124164
47.60126400459637,0.0083089649765318
47.62999138178684,0.0081767736730111
47.6587187589773,0.0085636414808672
47.687446136167765,0.0080854634212585
47.71617351335823,0.0074627078615933
47.74490089054869,0.0069021755360608
47.77362826773915,0.0059628674761738
47.80235564492961,0.0051702873890222
47.83108302212008,0.0058311382125075
47.85981039931054,0.005883582392815
47.888537776501,0.0052458457262083
47.91726515369147,0.0053753072735975
47.94599253088192,0.0053622417239802
47.97471990807239,0.0052041187524836
48.00344728526285,0.0052081952508407
48.032174662453315,0.0055268317047402
48.06090203964378,0.0047975574379345
48.08962941683424,0.0050288848803834
48.1183567940247,0.0057392291137114
48.14708417121516,0.0054366582410416
48.175811548405626,0.0051639411389434
48.20453892559609,0.0051222267656435
48.233266302786554,0.0051367192652432
48.26199367997702,0.0051593406005328
48.290721057167474,0.0052835356510871
48.31944843435794,0.0051526647911107
48.3481758115484,0.0053187452939245
48.376903188738865,0.0052150671528536
48.40563056592933,0.0058108084234485
48.43435794311979,0.0053756214889639
48.46308532031025,0.0057899098288932
48.49181269750071,0.0041171878900849
48.520540074691176,0.0053027300081576
48.54926745188164,0.0163281596392032
48.577994829072104,0.028320948774072
48.60672220626257,0.0430545207757697
48.635449583453024,0.0618115845937844
48.66417696064349,0.0572999533408868
48.69290433783395,0.0587282085199874
48.721631715024415,0.0556950723697468
48.75035909221488,0.0543662616999962
48.77908646940534,0.071504176230832
48.8078138465958,0.0436724249797725
48.83654122378626,0.030727071282428
48.86526860097673,0.0329999192312467
48.89399597816719,0.0192310667900062
48.922723355357654,0.018043333988802
48.95145073254812,0.011707305105454
48.980178109738574,0.0140460081295061
49.00890548692904,0.0112475726878542
49.0376328641195,0.0173591081801779
49.066360241309965,0.0199755717904568
49.09508761850043,0.0002544682457584
49.12381499569089,0.0103103954352476
49.15254237288135,0.0085276999835268
49.18126975007181,0.0079538781305179
49.20999712726228,0.0066872980885437
49.23872450445274,0.0061234583494745
49.2674518816432,0.006090751720908
49.29617925883367,0.0062345181419919
49.32490663602413,0.0061946252017138
49.35363401321459,0.0057441648667044
49.38236139040505,0.0056328852669185
49.411088767595515,0.0063084500618139
49.43981614478598,0.006128744842267
49.46854352197644,0.0058054921221428
49.4972708991669,0.0056259183919818
49.52599827635736,0.0055508025455315
49.55472565354783,0.0054234029886895
49.58345303073829,0.0053427792786492
49.612180407928754,0.0054320082553461
49.64090778511922,0.0054044083438943
49.669635162309675,0.0050508721360554
49.69836253950014,0.0046514979065423
49.7270899166906,0.004774425015682
49.755817293881066,0.0053025224557894
49.78454467107153,0.0053781932614143
49.81327204826199,0.0054938403451289
49.84199942545245,0.0054084067766113
49.87072680264291,0.0054822888325755
49.89945417983338,0.0057878231251
49.92818155702384,0.0062093192150399
49.956908934214304,0.0061677877888091
49.98563631140477,0.0059348541048691
50.014363688595225,0.0061297767909825
50.04309106578569,0.0060382347127005
50.07181844297615,0.006120942648076
50.100545820166616,0.0056847265545585
50.12927319735708,0.0055208758547644
50.15800057454754,0.0057234845563682
50.186727951738,0.0057656366539331
50.21545532892846,0.0059892421775752
50.24418270611893,0.0053990549384699
50.27291008330939,0.0057441700750918
50.301637460499855,0.0053893248049398
50.33036483769032,0.0056177848318632
50.359092214880775,0.005550223629091
50.38781959207124,0.0054430036939365
50.4165469692617,0.0055702225131998
50.445274346452166,0.0055355042783358
50.47400172364263,0.0054596874505134
50.50272910083309,0.005497789341307
50.53145647802355,0.00546684115138
50.560183855214014,0.0053739999484768
50.58891123240448,0.0054217176279232
50.61763860959494,0.0055600055783309
50.646365986785405,0.0054809959501285
50.67509336397587,0.0053968123467827
50.703820741166325,0.0055003887587943
50.73254811835679,0.0056614272090904
50.76127549554725,0.0058899765656971
50.79000287273771,0.0062430817927727
50.81873024992818,0.0057499087211514
50.84745762711864,0.0054591574009161
50.8761850043091,0.0066367136898287
50.90491238149957,0.0058281272900146
50.93363975869003,0.0057100827681809
50.96236713588049,0.0059134013006883
50.991094513070955,0.0059544652856523
51.01982189026142,0.0059120711447149
51.048549267451875,0.0060097508587124
51.07727664464234,0.0059669816610889
51.1060040218328,0.0059379493773913
51.134731399023266,0.005852479149741
51.16345877621373,0.0055846122481532
51.192186153404194,0.0056297435389045
51.22091353059465,0.005704928783348
51.249640907785114,0.0051347933721064
51.27836828497558,0.0055175535389786
51.30709566216604,0.0057511992040834
51.335823039356505,0.005684467824875
51.36455041654697,0.0056460313698891
51.393277793737425,0.0056570666908912
51.42200517092789,0.0065285639807911
51.45073254811835,0.0014993461696086
51.47945992530882,0.0078785916259238
51.50818730249928,0.0099787138093014
51.536914679689744,0.005788224802367
51.5656420568802,0.0060261998391817
51.594369434070664,0.006041380045259
51.62309681126113,0.0062271970988189
51.65182418845159,0.0062943640484276
51.680551565642055,0.0062806566400813
51.70927894283252,0.0062268415776077
51.738006320022976,0.0063496118047629
51.76673369721344,0.0063514288348866
51.7954610744039,0.0063790556807086
51.82418845159437,0.0058936272096433
51.85291582878483,0.005767848048491
51.881643205975294,0.0059222082835762
51.91037058316575,0.0065192415041325
51.939097960356214,0.0061111892362919
51.96782533754668,0.0050352246619259
51.99655271473714,0.005683815998584
52.025280091927605,0.0056630957775367
52.05400746911807,0.0056762091836824
52.082734846308526,0.0057837784989108
52.11146222349899,0.0056713338637686
52.14018960068945,0.0052655851421259
52.16891697787992,0.0053066297176737
52.19764435507038,0.0052733442253334
52.22637173226085,0.0057507158662077
52.2550991094513,0.0060034856716152
52.283826486641765,0.0048386614046526
52.31255386383223,0.0054917581633984
52.34128124102269,0.0056351851290092
52.37000861821315,0.0055368743166829
52.39873599540362,0.0061304490982438
52.42746337259408,0.0063399288543378
52.45619074978454,0.0065518991575213
52.484918126975,0.0065912863894528
52.51364550416547,0.0050130912583699
52.54237288135593,0.0084175553659066
52.571100258546394,0.0227752416807247
52.59982763573685,0.0394125311147906
52.628555012927315,0.0409413500131525
52.65728239011778,0.0480021518949778
52.68600976730824,0.0569729890997494
52.714737144498706,0.0579131699724384
52.74346452168917,0.0598170180556358
52.772191898879626,0.0568743577719
52.80091927607009,0.0478627819526574
52.82964665326055,0.0496046871720498
52.85837403045102,0.0499466863359292
52.88710140764148,0.0303536131151319
52.915828784831945,0.0170224129251648
52.9445561620224,0.0105987268979974
52.973283539212865,0.0142900571474944
53.00201091640333,0.0129649265760171
53.03073829359379,0.0134403287449253
53.059465670784256,0.0091833700431779
53.08819304797471,0.0080971804809769
53.116920425165176,0.0079549138533425
53.14564780235564,0.0076073138058341
53.174375179546104,0.0073643542284248
53.20310255673657,0.006893499068402
53.23182993392703,0.0063529174092358
53.26055731111749,0.0062474335777143
53.28928468830795,0.0060296200153006
53.318012065498415,0.0055073582968216
53.34673944268888,0.007131820901534
53.37546681987934,0.0057455196239586
53.404194197069806,0.006785037827801166
53.43292157426026,0.0125159834084773
53.46164895145073,0.0054326389074406
53.49037632864119,0.0043769058285749
53.519103705831654,0.0081239414998189
53.54783108302212,0.0070858187601856
53.57655846021258,0.0067814064190518
53.60528583740304,0.0067733871779959
53.6340132145935,0.0056522772959503
53.662740591783965,0.0075467223435224
53.69146796897443,0.0069927069489157
53.72019534616489,0.0065058469193836
53.74892272335536,0.006604322056275
53.77765010054581,0.0056645120505801
53.80637747773628,0.0057517795927432
53.83510485492674,0.0051356198971559
53.8638322321172,0.0067097869097015
53.89255960930767,0.0059940883683972
53.92128698649813,0.0040341076735866
53.95001436368859,0.0057076472075408
53.97874174087905,0.0053058614550388
54.007469118069515,0.0061746995965776
54.03619649525998,0.0059810015001451
54.06492387245044,0.0058546180873653
54.09365124964091,0.006143054982489
54.12237862683136,0.0064493577046396
54.15110600402183,0.00648171137302
54.17983338121229,0.0064991478753564
54.208560758402754,0.0064508006322809
54.23728813559322,0.0064409337976109
54.26601551278368,0.0065664075821822
54.29474288997414,0.005702515607362
54.3234702671646,0.0063081189030121
54.352197644355066,0.0078749622104881
54.38092502154553,0.0047389751440306
54.40965239873599,0.0061799963111971
54.43837977592646,0.0030448170083915
54.46710715311691,-0.0076445018752271466
54.49583453030738,0.00034583696231012896
54.52456190749784,0.002202136320366897
54.553289284688304,0.0045132878817683
54.58201666187877,0.0080794647147662
54.61074403906923,0.0048739132301924
54.63947141625969,0.0054904257778562
54.66819879345015,0.0072661275003277
54.696926170640616,0.0043443202973812
54.72565354783108,0.0046459658338245
54.75438092502154,0.0057352363066507
54.78310830221201,0.0055664355361875
54.81183567940246,0.0056765221172475
54.84056305659293,0.0067433062938721
54.86929043378339,0.0059867193288967
54.898017810973855,0.0061931765590291
54.92674518816432,0.0063039098596695
54.95547256535478,0.0062853834310753
54.98419994254524,0.0063019758258138
55.0129273197357,0.0059111895451988
55.041654696926166,0.005889096070493
55.07038207411663,0.0060805891354403
55.09910945130709,0.0061412692285759
55.12783682849756,0.0061001951151683
55.156564205688014,0.0060232149177692
55.18529158287848,0.0059508532823549
55.21401896006894,0.0057140634849162
55.242746337259405,0.0057146144838669
55.27147371444987,0.0068183166108151
55.30020109164033,0.0050728973143277
55.32892846883079,0.0029776363087784
55.35765584602125,0.0068679953638457
55.38638322321171,0.005411670740215
55.41511060040218,0.0053428320987735
55.44383797759264,0.005899426072621
55.47256535478311,0.0055929939686928
55.50129273197357,0.0056057267919025
55.53002010916403,0.0057987063452766
55.55874748635449,0.005275432526053
55.587474863544955,0.0049642966017898
55.61620224073542,0.005170513618938
55.64492961792588,0.0050397774097017
55.67365699511634,0.0051033379640975
55.7023843723068,0.0052297215126612
55.731111749497266,0.0054146746323921
55.75983912668773,0.0053308601539501
55.788566503878194,0.0049996957235575
55.81729388106866,0.0051783150174272
55.846021258259114,0.0053169170306046
55.87474863544958,0.0053150565774426
55.90347601264004,0.0054760763463884
55.932203389830505,0.0057919079404812
55.96093076702097,0.0058104016135237
55.98965814421143,0.0055914104816545
56.01838552140189,0.0055438632661615
56.04711289859235,0.0055490741380631
56.07584027578282,0.0055727176115296
56.10456765297328,0.0056639455164307
56.133295030163744,0.0057040599418789
56.16202240735421,0.0056118322499133
56.190749784544664,0.0053092397547627
56.21947716173513,0.0051486974185238
56.24820453892559,0.0067567162862509
56.276931916116055,0.0058737210095966
56.30565929330652,0.0058672492057283
56.33438667049698,0.0061738448274092
56.36311404768744,0.006146219013147
56.3918414248779,0.0057354882195229
56.42056880206837,0.0059363302788637
56.44929617925883,0.0024332579848034
56.478023556449294,0.0087513512395672
56.50675093363976,0.0085712192167644
56.535478310830214,0.0030728526999876
56.56420568802068,0.0047924363485918
56.59293306521114,0.0155153746514301
56.621660442401605,0.01177989413684335
56.65038781959207,0.022277415251490892
56.67911519678253,0.0423725219686188
56.70784257397299,0.0242639027268179
56.73656995116345,0.0349403616766434
56.76529732835392,0.0322547753952708
56.79402470554438,0.0338722461596106
56.82275208273485,0.0353205128798649
56.85147945992531,0.0365583788566093
56.880206837115765,0.0380022688956373
56.90893421430623,0.0304756481048174
56.93766159149669,0.0267285604307385
56.96638896868715,0.0368759926750873
56.99511634587762,0.0014160385713989
57.02384372306808,0.0175136866237074
57.05257110025854,0.0215717316945745
57.081298477449,0.0089016517658187
57.11002585463947,0.0112339988618046
57.13875323182993,0.0107840026744732
57.167480609020394,0.0105765220287486
57.19620798621086,0.0076643686039751
57.224935363401315,0.0058091910289625
57.25366274059178,0.0059667256963738
57.28239011778224,0.004957724564113
57.311117494972706,0.0057450567313934
57.33984487216317,0.0055119194839799
57.36857224935363,0.0051164629968493
57.39729962654409,0.0056428216997962
57.42602700373455,0.0063742002837998
57.45475438092502,0.0064083704734208
57.48348175811548,0.0063372243665778
57.512209135305945,0.0062907605948854
57.54093651249641,0.0062922559364859
57.569663889686865,0.0062553144677481
57.59839126687733,0.0063390990435911
57.62711864406779,0.0066553632750511
57.655846021258256,0.0062017108235905
57.68457339844872,0.0060026516500824
57.71330077563918,0.0059546779339358
57.74202815282964,0.0057557263001594
57.770755530020104,0.0060141417130295
57.79948290721057,0.0060594210837648
57.82821028440103,0.0054126296811023
57.856937661591495,0.0053323865718266
57.88566503878196,0.0055189610203289
57.914392415972415,0.0053136737382181
57.94311979316288,0.0054807507822755
57.97184717035334,0.0058620920306781
58.000574547543806,0.0048934468539452
58.02930192473427,0.0051970818491439
58.05802930192473,0.0065375902226403
58.08675667911519,0.0049065751435423
58.115484056305654,0.0027656246780242
58.14421143349612,0.0080305598071119
58.17293881068658,0.0054380882516807
58.201666187877045,0.0051423976469219
58.23039356506751,0.0073128471175317
58.259120942257965,0.0051020083875769
58.28784831944843,0.0049305121833894
58.31657569663889,0.0059951415417579
58.34530307382936,0.005768814363684
58.37403045101982,0.0027555238555512
58.40275782821029,0.0077944651542025
58.43148520540074,0.0059661851760327
58.4602125825912,0.0052935905988075
58.48893995978167,0.0053995388816708
58.51766733697213,0.0056860074367501
58.546394714162595,0.004971730895391
58.57512209135306,0.0052073644139857
58.603849468543515,0.0063179175499572
58.63257684573398,0.0054140714249033
58.66130422292444,0.0056016507095137
58.69003160011491,0.0057226847406019
58.71875897730537,0.0055510873994772
58.747486354495834,0.0051438044446961
58.77621373168629,0.0061977115139349
58.804941108876754,0.0066386305211988
58.83366848606722,0.0014664223663497
58.86239586325768,0.0100209902374125
58.891123240448145,0.0061718665164818
58.9198506176386,0.0057657822153999
58.948577994829066,0.0058703430562116
58.97730537201953,0.0057761840107658
59.00603274920999,0.0062069175992425
59.03476012640046,0.0061260762692315
59.06348750359092,0.0057315264034023
59.09221488078138,0.0051987479104873
59.12094225797184,0.0049482833715307
59.149669635162304,0.0062518570815725
59.17839701235277,0.0059149155905115
59.20712438954323,0.0044066571349065
59.235851766733695,0.0057381764844275
59.26457914392415,0.0058238981875384
59.293306521114616,0.0055943410390213
59.32203389830508,0.0059080177789538
59.35076127549554,0.0059247479021368
59.37948865268601,0.0057113599859198
59.40821602987647,0.0057984973202043
59.43694340706693,0.0054577919568817
59.46567078425739,0.0051312689765981
59.494398161447855,0.0053060593694385
59.52312553863832,0.005513936140228
59.55185291582878,0.0056429183509961
59.580580293019246,0.0059222874401048
59.6093076702097,0.0055996110482373
59.638035047400166,0.0060234235512464
59.66676242459063,0.0062105668643745
59.69548980178109,0.0065309382052097
59.72421717897156,0.0063373482937543
59.75294455616202,0.0070453034660241
59.78167193335248,0.0057585025128575
59.81039931054294,0.0056078354881516
59.839126687733405,0.0065382088366958
59.86785406492387,0.0063685272211694
59.89658144211433,0.0060424356089587
59.9253088193048,0.0059629020284377
59.95403619649525,0.0059915658807823
59.98276357368571,0.0059053146081143
60.01149095087618,0.0064185560707144
60.04021832806664,0.0065438004282627
60.06894570525711,0.0051338670358783
60.09767308244757,0.0052798812712431
60.12640045963803,0.0051689288648525
60.15512783682849,0.0053210897572156
60.183855214018955,0.0056530108575609
60.21258259120942,0.005178206180124
60.24130996839988,0.0054854490207539
60.270037345590346,0.0051534837968919
60.2987647227808,0.0062648699753592
60.327492099971266,0.0057647780233824
60.35621947716173,0.0057734004784032
60.384946854352194,0.0058400218238893
60.41367423154266,0.0056232835710683
60.44240160873312,0.0056244993217257
60.47112898592358,0.0054521659439156
60.49985636311404,0.0055235647077543
60.528583740304505,0.0056418624373369
60.55731111749497,0.0054817596384956
60.58603849468543,0.0052690024380264
60.614765871875896,0.0055871022708976
60.64349324906635,0.0061364629558445
60.672220626256816,0.0045417685863971
60.70094800344728,0.0055185278095783
60.729675380637744,0.0058286073613445
60.75840275782821,0.0059536136543122
60.78713013501867,0.0049674316345549
60.81585751220913,0.0072909468389912
60.84458488939959,0.011251965537442
60.873312266590055,0.012436063744068583
60.90203964378052,0.0187678156144224
60.93076702097098,0.0212303600375959
60.959494398161446,0.0111078628014051
60.9882217753519,0.0188662725605188
61.01694915254237,0.0279322161585278
61.04567652973283,0.0375482453080755
61.074403906923294,0.0391203913918922
61.10313128411376,0.0397832438644903
61.13185866130422,0.0455066666074777
61.16058603849468,0.0434231737903379
61.18931341568514,0.0424719014557472
61.218040792875605,0.0396222755622207
61.24676817006607,0.0326452892246257
61.27549554725653,0.031506799725294
61.304222924447,0.0304337312918163
61.33295030163745,0.0225151826861847
61.36167767882792,0.0165367063809192
61.39040505601838,0.0173159604459783
61.41913243320885,0.0154567985696876
61.44785981039931,0.011342089062385
61.47658718758977,0.0110375388101168
61.50531456478023,0.0112103742272521
61.53404194197069,0.0096618650518088
61.56276931916115,0.0043736380951672
61.59149669635162,0.0063227600135853
61.62022407354208,0.0063317172939854
61.64895145073255,0.0062210587220662
61.677678827923,0.0062784098518961
61.70640620511347,0.0055653862236516
61.73513358230393,0.0055327987913251
61.763860959494394,0.0054609788712207
61.79258833668486,0.0057788206041608
61.82131571387532,0.0055274995921058
61.85004309106578,0.0061265598438912
61.87877046825624,0.0056558712846381
61.907497845446706,0.0055139761345853
61.93622522263717,0.0055760720752963
61.96495259982763,0.0057073815617798
61.9936799770181,0.0062392981029102
62.02240735420855,0.0061018148599226
62.05113473139902,0.0058998754697306
62.07986210858948,0.0058588064475286
62.108589485779945,0.0059222876860484
62.13731686297041,0.0061991974508465
62.16604424016087,0.005862327227209
62.19477161735133,0.0060127762779322
62.22349899454179,0.0060309907273703
62.252226371732256,0.0058350483724496
62.28095374892272,0.0057881871674082
62.30968112611318,0.0060045969547147
62.33840850330365,0.0059517513884335
62.367135880494104,0.0059348950681182
62.39586325768457,0.0059992887677393
62.42459063487503,0.005895083557276
62.453318012065495,0.0056924123975244
62.48204538925596,0.0057848630282508
62.51077276644642,0.0059659444697354
62.53950014363688,0.0065539791843197
62.56822752082734,0.0064819265957708
62.596954898017806,0.0056979466938866
62.62568227520827,0.0061610331741417
62.65440965239873,0.0062204011780128
62.6831370295892,0.0061554892370493
62.711864406779654,0.0061539694854538
62.74059178397012,0.0060063385926841
62.76931916116058,0.005809793218867
62.798046538351045,0.005825433685535
62.82677391554151,0.0063355114683752
62.85550129273197,0.0066993353500408
62.88422866992243,0.0066320604086688
62.91295604711289,0.0065357150023063
62.94168342430336,0.0065569350581014
62.97041080149382,0.0066864082520982
62.99913817868429,0.006852060434158
63.02786555587475,0.0067266115819277
63.0565929330652,0.0061986319524359
63.08532031025567,0.0063363488850183
63.11404768744613,0.0062454672293373
63.142775064636595,0.0060531022762623
63.17150244182706,0.0063899352175693
63.20022981901752,0.0071106382009344
63.22895719620798,0.0069317283694514
63.25768457339844,0.0070036003743093
63.28641195058891,0.0068199611754713
63.31513932777937,0.0068497634987381
63.343866704969834,0.0069155716919522
63.3725940821603,0.0067331124385278
63.401321459350754,0.0063883768073395
63.43004883654122,0.0059766471217769
63.45877621373168,0.0060814324113251
63.487503590922145,0.0066174912698022
63.51623096811261,0.004477767060505
63.54495834530307,0.005608638825152
63.57368572249353,0.0095059214917525
63.60241309968399,0.0072644694942671
63.63114047687446,0.0077176119178417
63.65986785406492,0.0075490464100364
63.688595231255384,0.0077412692558612
63.71732260844585,0.0078959488900978
63.746049985636304,0.0072003691973271
63.77477736282677,0.007027420476433
63.80350474001723,0.0073550156861135
63.832232117207695,0.0065656619921063
63.86095949439816,0.0067771920521056
63.88968687158862,0.0062813569498894
63.91841424877908,0.0056207227653451
63.94714162596954,0.0080871210621799
63.97586900316001,0.0066488463237648
64.00459638035046,0.0066024033739343
64.03332375754093,0.006369148180587
64.06205113473139,0.0066731620394519
64.09077851192185,0.0067197040016053
64.11950588911232,0.0063590417285502
64.14823326630278,0.0062880492394923
64.17696064349325,0.0074358648830007
64.20568802068371,0.0062910764030659
64.23441539787417,0.0068618336533524
64.26314277506464,0.0064620705429968
64.2918701522551,0.006596124924329
64.32059752944556,0.0066036844789107
64.34932490663601,0.0065508279453869
64.37805228382648,0.0065740144895626
64.40677966101694,0.0065680091333203
64.4355070382074,0.0064868420322901
64.46423441539787,0.0063539967392757
64.49296179258833,0.0061445806436113
64.5216891697788,0.0061300894368012
64.55041654696926,0.0063818347273268
64.57914392415972,0.0053068198974389
64.60787130135019,0.0053319512977744
64.63659867854065,0.0057355460796809
64.66532605573111,0.0059023255295761
64.69405343292156,0.0050406436408616
64.72278081011203,0.0069028015374636
64.75150818730249,0.0062520847843207
64.78023556449295,0.0069420771829134
64.80896294168342,0.0066229621154487
64.83769031887388,0.0067831383885956
64.86641769606435,0.0074217069414048
64.89514507325481,0.0129006240643946
64.92387245044527,0.04552556836449915
64.95259982763574,0.072945143218527
64.9813272048262,0.0830086693370528
65.01005458201665,0.0900941282370201
65.03878195920711,0.104793570007539
65.06750933639758,0.1095030457528679
65.09623671358804,0.1118450823471716
65.1249640907785,0.1140402758481216
65.15369146796897,0.0913726030434972
65.18241884515943,0.0851935756385377
65.2111462223499,0.0542177712117765
65.23987359954036,0.0294234593701604
65.26860097673082,0.0255746249616625
65.29732835392129,0.0123138517771119
65.32605573111175,0.0249874912377145
65.3547831083022,0.0393457337231108
65.38351048549266,0.018802694007746815
65.41223786268313,0.010860179959201
65.44096523987359,0.0186142131967563
65.46969261706406,0.0066946941525864
65.49841999425452,0.0053109720684681
65.52714737144498,0.0071005968511781
65.55587474863545,0.0062718741678447
65.58460212582591,0.0064415954237753
65.61332950301637,0.0067459385912501
65.64205688020684,0.006653150364081
65.6707842573973,0.0067604432835361
65.69951163458775,0.0069170630707177
65.72823901177821,0.0061654696284465
65.75696638896868,0.0058994821998724
65.78569376615914,0.0068765487502817
65.8144211433496,0.0047767807365049
65.84314852054007,0.0056961416007981
65.87187589773053,0.0054582113205775
65.900603274921,0.0053614872830028
65.92933065211146,0.0053750057397901
65.95805802930192,0.0054682454930718
65.98678540649239,0.0051805564458217
66.01551278368285,0.0052808410046089
66.0442401608733,0.0054458892362881
66.07296753806376,0.0052296566561552
66.10169491525423,0.0052404290374656
66.13042229244469,0.0052259804362441
66.15914966963516,0.0050459555281826
66.18787704682562,0.0052021567321792
66.21660442401608,0.0057094122014097
66.24533180120655,0.0051552527149598
66.27405917839701,0.0047648119619305
66.30278655558747,0.0053570386049308
66.33151393277794,0.0051481293058908
66.3602413099684,0.0057017908589285
66.38896868715885,0.005338537385234
66.41769606434931,0.0053601329948643
66.44642344153978,0.0049010802343122
66.47515081873024,0.0053397263290965
66.5038781959207,0.0058598059131403
66.53260557311117,0.0049349628172253
66.56133295030163,0.0055910539662265
66.5900603274921,0.0052498203300023
66.61878770468256,0.0052492255091779
66.64751508187302,0.005294200221332
66.67624245906349,0.005341939428215
66.70496983625395,0.0048690003792884
66.7336972134444,0.0057656027037433
66.76242459063486,0.0051854593430346
66.79115196782533,0.0049620827991134
66.81987934501579,0.0048248582087938
66.84860672220626,0.004745350362225
66.87733409939672,0.0048296316811322
66.90606147658718,0.0049107333360995
66.93478885377765,0.0050643359870033
66.96351623096811,0.0049943482218531
66.99224360815857,0.0049598916192662
67.02097098534904,0.005330733944775
67.0496983625395,0.0049964354735641
67.07842573972995,0.0051965143204577
67.10715311692041,0.0050076203725703
67.13588049411088,0.0049635230742492
67.16460787130134,0.0049898169013205
67.1933352484918,0.0045176226346437
67.22206262568227,0.005080095313305
67.25079000287273,0.0051877121994486
67.2795173800632,0.0045150901402151
67.30824475725366,0.0046054210259562
67.33697213444412,0.0050539211989386
67.36569951163459,0.0053184780303607
67.39442688882505,0.0050682435196186
67.4231542660155,0.0050017136546725
67.45188164320597,0.0048686061977284
67.48060902039643,0.0054688934613776
67.50933639758689,0.0054393650543096
67.53806377477736,0.0029723975877735
67.56679115196782,0.0070357657897095
67.59551852915828,0.0050380896529132
67.62424590634875,0.0041811045670835
67.65297328353921,0.0052020199611659
67.68170066072967,0.0051741372855501
67.71042803792014,0.0053016315824711
67.7391554151106,0.0053136554738881
67.76788279230105,0.0054276501939257
67.79661016949152,0.0056679753979051
67.82533754668198,0.0056857722314298
67.85406492387244,0.0054142181682402
67.8827923010629,0.0051674482539554
67.91151967825337,0.0054787154535946
67.94024705544383,0.0053680611506553
67.9689744326343,0.0052655694779514
67.99770180982476,0.0048648466350987
68.02642918701522,0.0050197580202273
68.05515656420569,0.0049092395399508
68.08388394139615,0.0048952476782555
68.1126113185866,0.0051707677923008
68.14133869577707,0.0048596697021074
68.17006607296753,0.0047540894647546
68.19879345015799,0.0048580999743941
68.22752082734846,0.0047948347400956
68.25624820453892,0.0047402179312054
68.28497558172938,0.0045901479222884
68.31370295891985,0.0045661512230362
68.34243033611031,0.0043737558113218
68.37115771330078,0.0044006765217774
68.39988509049124,0.0048186128829868
68.4286124676817,0.0048609287521115
68.45733984487215,0.0048648068794059
68.48606722206262,0.0047929450058907
68.51479459925308,0.0051830454448388
68.54352197644354,0.0057852011700758
68.572249353634,0.0051744765722424
68.60097673082447,0.0053558894493311
68.62970410801493,0.0055184340006364
68.6584314852054,0.0053150709821817
68.68715886239586,0.0054199233276348
68.71588623958633,0.0050086664664228
68.74461361677679,0.005204282129011
68.77334099396725,0.0051367343228603
68.8020683711577,0.0050876405241293
68.83079574834817,0.0051864960851296
68.85952312553863,0.0045014226889833
68.8882505027291,0.0055465473610615
68.91697787991956,0.0096030711973508
68.94570525711002,0.0011292941377819
68.97443263430048,0.0006085113639642
69.00316001149095,0.0311864223757119
69.03188738868141,0.022249245505382
69.06061476587188,0.0357923576264199
69.08934214306234,0.0454691324842398
69.1180695202528,0.0476570263527469
69.14679689744325,0.0534341921925179
69.17552427463372,0.052884536612891
69.20425165182418,0.0543410556317513
69.23297902901464,0.0512875774211047
69.2617064062051,0.0459978738743125
69.29043378339557,0.0470707363692429
69.31916116058603,0.0393710641721643
69.3478885377765,0.0306234481099466
69.37661591496696,0.0274195263627511
69.40534329215743,0.0289548732698132
69.43407066934789,0.0154643959017075
69.46279804653835,0.0087016857171171
69.4915254237288,0.0067928361193141
69.52025280091927,0.0107807160736571
69.54898017810973,0.0098913909544657
69.5777075553002,0.0079442347357403
69.60643493249066,0.0071467327649466
69.63516230968112,0.0092024708889033
69.66388968687158,0.0031372690194724
69.69261706406205,0.0066866345607378
69.72134444125251,0.0068385283825153
69.75007181844298,0.0061622494389094
69.77879919563344,0.0063028793817248
69.8075265728239,0.0062684368176534
69.83625395001435,0.006545021284501
69.86498132720482,0.0058012100551233
69.89370870439528,0.0058019255426263
69.92243608158574,0.0058709955828841
69.95116345877621,0.0054187798178565
69.97989083596667,0.0058110946060701
70.00861821315713,0.0058231940903848
70.0373455903476,0.0059664534886509
70.06607296753806,0.0052751672555837
70.09480034472853,0.0057350897181712
70.12352772191899,0.0049102117365435
70.15225509910945,0.0052205212990867
70.1809824762999,0.005151616578791
70.20970985349037,0.0046172998320346
70.23843723068083,0.0045717852064111
70.2671646078713,0.005138687861675
70.29589198506176,0.0049220344003514
70.32461936225222,0.0053027950848056
70.35334673944269,0.0054416170984435
70.38207411663315,0.0053195602006526
70.41080149382361,0.005349976244418
70.43952887101408,0.0061134198948945
70.46825624820454,0.0060094253456806
70.496983625395,0.0058324113146667
70.52571100258545,0.0058640633684585
70.55443837977592,0.0058293730473273
70.58316575696638,0.0061065609313538
70.61189313415684,0.0061893226942631
70.64062051134731,0.0053588883922547
70.66934788853777,0.0054739443722006
70.69807526572824,0.0053556775752193
70.7268026429187,0.0051533286036773
70.75553002010916,0.0052112288119311
70.78425739729963,0.0050892700294665
70.81298477449009,0.0048126672720186
70.84171215168054,0.0051476595262107
70.870439528871,0.0048413739834962
70.89916690606147,0.0055461018728796
70.92789428325193,0.0056170399919931
70.9566216604424,0.0061172680189048
70.98534903763286,0.0063851400852466
71.01407641482332,0.0063102615202029
71.04280379201379,0.0064607867272863
71.07153116920425,0.0059937579184417
71.10025854639471,0.0063109570444988
71.12898592358518,0.0061627802565259
71.15771330077564,0.0052872522376021
71.18644067796609,0.0053807543160267
71.21516805515655,0.00546854937461
71.24389543234702,0.0054351716062279
71.27262280953748,0.005553355196489
71.30135018672794,0.0056792799012908
71.33007756391841,0.0055784715346755
71.35880494110887,0.0054469079786417
71.38753231829934,0.006608597940139
71.4162596954898,0.0061481469668324
71.44498707268026,0.0061043261965406
71.47371444987073,0.0061905708420486
71.50244182706119,0.0060735055182341
71.53116920425164,0.006364831063887
71.5598965814421,0.0064922435560433
71.58862395863257,0.0055833112289742
71.61735133582303,0.0055478259184125
71.6460787130135,0.0056856480751688
71.67480609020396,0.0059009877081836
71.70353346739442,0.005630693899932
71.73226084458489,0.0058081482704097
71.76098822177535,0.0056402470479924
71.78971559896581,0.0056824242645681
71.81844297615628,0.0060256802130643
71.84717035334674,0.0057050692439174
71.87589773053719,0.0054898190591987
71.90462510772765,0.0054288922829059
71.93335248491812,0.0054259763962586
71.96207986210858,0.0056324283024676
71.99080723929904,0.0053939409246507
72.01953461648951,0.0054373042268287
72.04826199367997,0.005338338749855
72.07698937087044,0.0054318073821518
72.1057167480609,0.0054074128229843
72.13444412525136,0.0051848654974249
72.16317150244183,0.0053801390460169
72.19189887963229,0.0053181822554518
72.22062625682274,0.0053248788926247
72.2493536340132,0.005391986315659
72.27808101120367,0.0052323701072151
72.30680838839413,0.005163836884958
72.3355357655846,0.0052832497599633
72.36426314277506,0.0053137728720066
72.39299051996552,0.0052125215456697
72.42171789715599,0.0052544159236025
72.45044527434645,0.0058528746053601
72.47917265153691,0.0056080292490837
72.50790002872738,0.0053380840203593
72.53662740591784,0.0055941703669095
72.56535478310829,0.0059453186417927
72.59408216029875,0.0059913740005581
72.62280953748922,0.0059547636412563
72.65153691467968,0.0058950931657113
72.68026429187015,0.0057473625039633
72.70899166906061,0.0056052333294172
72.73771904625107,0.0059012975520182
72.76644642344154,0.0058529722972654
72.795173800632,0.0053872858396378
72.82390117782246,0.0056014834301316
72.85262855501293,0.000959521674673
72.88135593220339,0.0073900701196629
72.91008330939384,0.019540533801221668
72.9388106865843,0.0200851375327351
72.96753806377477,0.0397080749851128
72.99626544096523,0.0434989150650146
73.0249928181557,0.0475326450651365
73.05372019534616,0.0493410562527079
73.08244757253662,0.0501544168038019
73.11117494972709,0.0513333387242493
73.13990232691755,0.0518983948724119
73.16862970410801,0.0336011197202633
73.19735708129848,0.0240987922697492
73.22608445848894,0.0257125620497742
73.25481183567939,0.013577340830463
73.28353921286985,0.0175694249068913
73.31226659006032,0.0202393085708633
73.34099396725078,0.0101425106322344
73.36972134444125,0.0099372286035552
73.39844872163171,0.0087860528346413
73.42717609882217,0.0088512574264668
73.45590347601264,0.0085569197627455
73.4846308532031,0.0089988608561299
73.51335823039356,0.0062415984121765
73.54208560758403,0.0057341764732375
73.57081298477449,0.0059949641599088
73.59954036196494,0.0055913807611715
73.6282677391554,0.0056508450279073
73.65699511634587,0.005641466707935
73.68572249353633,0.0059382957399924
73.7144498707268,0.0058330416027197
73.74317724791726,0.0056807925932979
73.77190462510772,0.0060259123245746
73.80063200229819,0.0048659501858998
73.82935937948865,0.0051381642095149
73.85808675667911,0.0055721138409373
73.88681413386958,0.0053973397539692
73.91554151106004,0.0055063550664978
73.94426888825049,0.0053679929910339
73.97299626544095,0.0053968284628325
74.00172364263142,0.0057406017533437
74.03045101982188,0.0059334725167005
74.05917839701235,0.0048710675543987
74.08790577420281,0.0056472407244769
74.11663315139327,0.0054933970858256
74.14536052858374,0.0051575217426591
74.1740879057742,0.005598305261479
74.20281528296466,0.0057376896614861
74.23154266015513,0.0054216729722146
74.26027003734559,0.0053228666874078
74.28899741453604,0.0053041804625942
74.3177247917265,0.0052755047080664
74.34645216891697,0.0054028452066996
74.37517954610743,0.0053469309648664
74.4039069232979,0.0047975713610518
74.43263430048836,0.004558574290294
74.46136167767882,0.0045479273365313
74.49008905486929,0.0039317894735758
74.51881643205975,0.0055031051646275
74.54754380925021,0.0051276877141912
74.57627118644068,0.0042122669569997
74.60499856363114,0.0048560798660208
74.63372594082159,0.0051376434683014
74.66245331801206,0.0048816485316913
74.69118069520252,0.0047940025212403
74.71990807239298,0.0056022141040204
74.74863544958345,0.0052767208992939
74.77736282677391,0.0051344095577428
74.80609020396437,0.0052067397787665
74.83481758115484,0.0051503838197211
74.8635449583453,0.0049966075078866
74.89227233553576,0.0049307313498542
74.92099971272623,0.0045603843440177
74.94972708991669,0.0045097562845586
74.97845446710714,0.004561649767527
75.0071818442976,0.0044763795345783
75.03590922148807,0.004693716015464
75.06463659867853,0.0045438823420186
75.093363975869,0.0046075393420556
75.12209135305946,0.0045835912502317
75.15081873024992,0.0042481268020921
75.17954610744039,0.0045008150114345
75.20827348463085,0.0048211111431197
75.23700086182131,0.0046566568936525
75.26572823901178,0.0046636180099454
75.29445561620224,0.0049804794825204
75.32318299339269,0.0050727421385034
75.35191037058316,0.0050485312093691
75.38063774777362,0.0052603393732748
75.40936512496408,0.0053331572114093
75.43809250215455,0.0049466001228401
75.46681987934501,0.0054198911016051
75.49554725653547,0.0054657069131241
75.52427463372594,0.0052922011121885
75.5530020109164,0.0052493734829559
75.58172938810687,0.0047493919428888
75.61045676529733,0.0056510988960091
75.63918414248779,0.0054805153907373
75.66791151967824,0.00521729121798
75.6966388968687,0.0054236034374899
75.72536627405917,0.0053314756735564
75.75409365124963,0.0051327443318638
75.7828210284401,0.0052034844167987
75.81154840563056,0.005184270596834
75.84027578282102,0.0050350985314667
75.86900316001149,0.0051596035485537
75.89773053720195,0.0053919387937575
75.92645791439242,0.0053055188628143
75.95518529158288,0.0053204888883756
75.98391266877334,0.0058067431654092
76.01264004596379,0.0055247606074384
76.04136742315426,0.0055466782670822
76.07009480034472,0.0057226850259805
76.09882217753518,0.0057797552925093
76.12754955472565,0.0057680097797299
76.15627693191611,0.00577159635977
76.18500430910657,0.005796520091706
76.21373168629704,0.0056960206754693
76.2424590634875,0.0058368444937462
76.27118644067797,0.0065640083375979
76.29991381786843,0.0056728746266589
76.32864119505889,0.0041993902575748
76.35736857224934,0.0109238997562074
76.3860959494398,0.0142862861692431
76.41482332663027,0.0146664025614358
76.44355070382073,0.0145060289835968
76.4722780810112,0.0145307683224006
76.50100545820166,0.0143276281229133
76.52973283539212,0.0145553582651647
76.55846021258259,0.015438407314216
76.58718758977305,0.0123322441411555
76.61591496696352,0.0063372724722966
76.64464234415398,0.004529323238188
76.67336972134443,0.0079083942127707
76.70209709853489,0.0070434518581575
76.73082447572536,0.0071461858544422
76.75955185291582,0.0066138734495064
76.78827923010628,0.0039937778466636
76.81700660729675,0.0097403788708321
76.84573398448721,0.0076377666534587
76.87446136167767,0.0117383075903072
76.90318873886814,0.0252558833059193
76.9319161160586,0.0419736142959376
76.96064349324907,0.0569249680991987
76.98937087043953,0.0660822317441645
77.01809824762998,0.0676757356322857
77.04682562482044,0.0691062614073889
77.0755530020109,0.0678465320441198
77.10428037920137,0.0733863027164914
77.13300775639183,0.0675095251787141
77.1617351335823,0.03373845579835814
77.19046251077276,0.0337255317836979
77.21918988796322,0.03130479817335464
77.24791726515369,0.016840309757869
77.27664464234415,0.0154186169674511
77.30537201953462,0.0205963495540376
77.33409939672508,0.0179598487386381
77.36282677391553,0.0149783001319229
77.39155415110599,0.0137104156912728
77.42028152829646,0.0131377265945155
77.44900890548692,0.0145175933253499
77.47773628267738,0.0117136612951645
77.50646365986785,0.0067841909935483
77.53519103705831,0.0069971105371981
77.56391841424877,0.0068903387396125
77.59264579143924,0.0065120456106889
77.6213731686297,0.0063811514063428
77.65010054582017,0.0060991071158053
77.67882792301063,0.0059039534375934
77.70755530020108,0.0061675579957302
77.73628267739154,0.0063180183034737
77.765010054582,0.0066876576623138
77.79373743177247,0.0066508283911871
77.82246480896293,0.0067130733135418
77.8511921861534,0.0074761864538532
77.87991956334386,0.0088768445507422
77.90864694053433,0.006498899799448
77.93737431772479,0.0027359703619239
77.96610169491525,0.006877279035066
77.99482907210572,0.006963826060321
78.02355644929618,0.0068014333985339
78.05228382648663,0.0066621369883782
78.0810112036771,0.0073604024139776
78.10973858086756,0.0072869104137597
78.13846595805802,0.0072762513824025
78.16719333524848,0.0074711467286348
78.19592071243895,0.0071627585361336
78.22464808962941,0.0073383949797017
78.25337546681988,0.0068325765281727
78.28210284401034,0.0058936122069378
78.3108302212008,0.0079944847760778
78.33955759839127,0.0068168882406865
78.36828497558173,0.0067010286550276
78.39701235277218,0.0066672794238583
78.42573972996264,0.0066290936927751
78.4544671071531,0.0071312578748579
78.48319448434357,0.0069846526422035
78.51192186153403,0.0070428890471552
78.5406492387245,0.0063319668677057
78.56937661591496,0.007003634601963
78.59810399310543,0.0068661591957438
78.62683137029589,0.0064001043481466
78.65555874748635,0.0064544204235018
78.68428612467682,0.0067232716624029
78.71301350186728,0.00622356003402
78.74174087905773,0.0065933553270485
78.7704682562482,0.0064816085789952
78.79919563343866,0.006197089998165
78.82792301062912,0.0061377972536125
78.85665038781958,0.0071576766230562
78.88537776501005,0.0063930728969621
78.91410514220051,0.0060653139840856
78.94283251939098,0.0069544779383303
78.97155989658144,0.0068984577225771
79.0002872737719,0.0067684322834753
79.02901465096237,0.0065552232243163
79.05774202815283,0.006304136050555
79.08646940534328,0.0064024423972751
79.11519678253374,0.0067251799717288
79.14392415972421,0.0065724932675972
79.17265153691467,0.0065019682671023
79.20137891410513,0.0070086635247863
79.2301062912956,0.0065645577915811
79.25883366848606,0.0066189418224059
79.28756104567653,0.0069950684061336
79.31628842286699,0.0068653190728794
79.34501580005745,0.0067781840261615
79.37374317724792,0.0074444362952659
79.40247055443838,0.0073720014676044
79.43119793162883,0.0070942224234947
79.4599253088193,0.0077330482848365
79.48865268600976,0.0075651344336198
79.51738006320022,0.0074128795820573
79.54610744039068,0.0065868760207823
79.57483481758115,0.0063439315101861
79.60356219477161,0.0070672402841387
79.63228957196208,0.0065453574969915
79.66101694915254,0.006000895577991
79.689744326343,0.0061055806434072
79.71847170353347,0.0064384390203395
79.74719908072393,0.0060663264148393
79.77592645791438,0.0066070529263921
79.80465383510484,0.0066791881633565
79.83338121229531,0.0065358653007491
79.86210858948577,0.0068059243098636
79.89083596667624,0.006720066996985
79.9195633438667,0.0065351672011111
79.94829072105716,0.0064983517073558
79.97701809824763,0.0063790201813547
80.00574547543809,0.0064854984745946
80.03447285262855,0.0057180485116591
80.06320022981902,0.0060247371611687
80.09192760700948,0.0065620236930446
80.12065498419993,0.0062090112373373
80.1493823613904,0.0066222174909087
80.17810973858086,0.0067885124830729
80.20683711577132,0.006406559223307
80.23556449296179,0.0072416481053076
80.26429187015225,0.0076857799135792
80.29301924734271,0.0062124928474439
80.32174662453318,0.0060923230963512
80.35047400172364,0.008590118136874
80.3792013789141,0.0070857098750607
80.40792875610457,0.006653659742691
80.43665613329503,0.007255817259976
80.46538351048548,0.0069316782497591
80.49411088767594,0.0066857952436389
80.52283826486641,0.0067661784007505
80.55156564205687,0.0069121645842582
80.58029301924734,0.0068215358115809
80.6090203964378,0.0067648125111723
80.63774777362826,0.006810460356758
80.66647515081873,0.0067027207240099
80.69520252800919,0.006930023357583
80.72392990519965,0.0069986552517154
80.75265728239012,0.0070415831139574
80.78138465958058,0.0071628233597722
80.81011203677103,0.006618944652617
80.8388394139615,0.0069024590283921
80.86756679115196,0.0066884751465235
80.89629416834242,0.0065461351319804
80.92502154553289,0.006526165233818
80.95374892272335,0.0069837232439341
80.98247629991381,0.0069094127857947
81.01120367710428,0.0055726694971296
81.03993105429474,0.0076420360779071
81.0686584314852,0.0168941190880094
81.09738580867567,0.0430262036056175
81.12611318586613,0.0451244686072592
81.15484056305658,0.048496047928711
81.18356794024704,0.0494225398818294
81.21229531743751,0.0506703183086807
81.24102269462797,0.0492265431360397
81.26975007181844,0.0523889161874438
81.2984774490089,0.0513007374853725
81.32720482619936,0.0296948268178468
81.35593220338983,0.0319390558195255
81.38465958058029,0.0251131606761709
81.41338695777075,0.0185322063787747
81.44211433496122,0.018786868293106
81.47084171215168,0.0192685811056985
81.49956908934213,0.0185017991381705
81.5282964665326,0.0098201702124465
81.55702384372306,0.0108068520935483
81.58575122091352,0.0111035070908836
81.61447859810399,0.0095284591535573
81.64320597529445,0.0098245268309829
81.67193335248491,0.0099427548430391
81.70066072967538,0.0097619450465845
81.72938810686584,0.0091916894137828
81.7581154840563,0.0056016395781943
81.78684286124677,0.0060683714263931
81.81557023843723,0.0061149709212392
81.84429761562768,0.0066767446545595
81.87302499281815,0.0068795814856886
81.90175237000861,0.0068221180930718
81.93047974719907,0.0067459249340768
81.95920712438954,0.0067632349866771
81.98793450158,0.0068982528570502
82.01666187877046,0.007083139642469
82.04538925596093,0.006717000574322
82.07411663315139,0.0065559504785566
82.10284401034185,0.0056824627877815
82.13157138753232,0.0072954567604965
82.16029876472278,0.0071639555589246
82.18902614191323,0.0063214148930028
82.2177535191037,0.0064872687315856
82.24648089629416,0.005947049907272
82.27520827348462,0.0064393902372622
82.30393565067509,0.0077973433974652
82.33266302786555,0.0077811765843575
82.36139040505601,0.0075276062020738
82.39011778224648,0.0072726354143734
82.41884515943694,0.0072161775929426
82.4475725366274,0.0065282238927131
82.47629991381787,0.0092258457899651
82.50502729100832,0.0062450018869593
82.53375466819878,0.0043864614971614
82.56248204538925,0.0066570236325984
82.59120942257971,0.0067357416966768
82.61993679977017,0.0068318561807273
82.64866417696064,0.0067193208343806
82.6773915541511,0.0068587434711367
82.70611893134156,0.0070932479649772
82.73484630853203,0.0071781359221085
82.76357368572249,0.0072458215949422
82.79230106291295,0.0072100215105947
82.82102844010342,0.0068228463490195
82.84975581729387,0.0065192147964345
82.87848319448433,0.0065958562113949
82.9072105716748,0.00625366375613
82.93593794886526,0.0064546235223279
82.96466532605572,0.0064858867205521
82.99339270324619,0.0065555723599126
83.02212008043665,0.0068287877670929
83.05084745762711,0.0073790254320648
83.07957483481758,0.0080632463554407
83.10830221200804,0.0078071814426284
83.1370295891985,0.0079699156313638
83.16575696638897,0.0082565510729964
83.19448434357942,0.0078497738395372
83.22321172076988,0.0079555232140805
83.25193909796035,0.0069828138808072
83.28066647515081,0.0074610114029255
83.30939385234127,0.0072582728513347
83.33812122953174,0.0069695753453354
83.3668486067222,0.0071095794736991
83.39557598391266,0.0069705255051034
83.42430336110313,0.0074729347822115
83.45303073829359,0.0074099670200903
83.48175811548406,0.0065999633600386
83.51048549267452,0.0069808161044311
83.53921286986497,0.0068401151656367
83.56794024705543,0.0069110111984022
83.5966676242459,0.0067929508035984
83.62539500143636,0.0067037915060345
83.65412237862682,0.0068903258190191
83.68284975581729,0.0074725683062497
83.71157713300775,0.0071663643122996
83.74030451019821,0.0074777202394369
83.76903188738868,0.0071127661121195
83.79775926457914,0.0073041091153864
83.8264866417696,0.0073924453882121
83.85521401896007,0.0074171452140744
83.88394139615052,0.0076088573859725
83.91266877334098,0.0074741452860002
83.94139615053145,0.007573007106179
83.97012352772191,0.0074358843455134
83.99885090491237,0.0073818828425746
84.02757828210284,0.0073526802040234
84.0563056592933,0.0072261023598291
84.08503303648376,0.0070154241517232
84.11376041367423,0.0068405608457982
84.14248779086469,0.0066860958945029
84.17121516805516,0.0069676147895897
84.19994254524562,0.0071109246211004
84.22866992243607,0.0072691041800754
84.25739729962653,0.0072428040203205
84.286124676817,0.0073267202976894
84.31485205400746,0.0076082297654551
84.34357943119792,0.0068048661779586
84.37230680838839,0.0067783629347272
84.40103418557885,0.0068789491935138
84.42976156276931,0.0064602102762398
84.45848893995978,0.0066320747960606
84.48721631715024,0.005834708081811
84.5159436943407,0.0060833123477632
84.54467107153117,0.0065234324447368
84.57339844872162,0.0067088472371942
84.60212582591208,0.0069140500709683
84.63085320310255,0.0068003667774892
84.65958058029301,0.0070959480437619
84.68830795748347,0.007544684942349
84.71703533467394,0.0074410650552642
84.7457627118644,0.0072699779645578
84.77449008905486,0.0078744886609252
84.80321746624533,0.0075025699743243
84.83194484343579,0.0075055203445161
84.86067222062626,0.0080616151529644
84.88939959781672,0.0080896859438342
84.91812697500717,0.0067625912273551
84.94685435219763,0.0098372195116563
84.9755817293881,0.0215890354547363
85.00430910657856,0.0332055987828064
85.03303648376902,0.0457598901382794
85.06176386095949,0.0548356360501813
85.09049123814995,0.0586366279766799
85.11921861534042,0.0591479859661933
85.14794599253088,0.0570873038438401
85.17667336972134,0.0594950997579313
85.2054007469118,0.0509612136023006
85.23412812410227,0.0372612050052855
85.26285550129272,0.0322799341844855
85.29158287848318,0.0214589140548163
85.32031025567365,0.0156337159587046
85.34903763286411,0.0153983534947097
85.37776501005457,0.0211890983294076
85.40649238724504,0.014526916781455
85.4352197644355,0.0073411198836491
85.46394714162597,0.0100074854738609
85.49267451881643,0.0089211837648597
85.52140189600689,0.007063568817569
85.55012927319736,0.0054213221774193
85.57885665038782,0.0055725254980633
85.60758402757827,0.0057832938800554
85.63631140476873,0.0057272845465293
85.6650387819592,0.0058823182955133
85.69376615914966,0.0063901632762599
85.72249353634012,0.0065884109682147
85.75122091353059,0.0071482886292802
85.77994829072105,0.0066546840323724
85.80867566791152,0.0067141104379722
85.83740304510198,0.0068423535630782
85.86613042229244,0.0068166546952284
85.8948577994829,0.0066782581934072
85.92358517667337,0.00651998008744
85.95231255386382,0.0064776818646708
85.98103993105428,0.0062097511742043
86.00976730824475,0.0064030216567407
86.03849468543521,0.0063498619699161
86.06722206262567,0.0061110714801657
86.09594943981614,0.0061503150139046
86.1246768170066,0.0058752189916046
86.15340419419707,0.006255181841789
86.18213157138753,0.0061514952445742
86.210858948578,0.008159998394854
86.23958632576846,0.0069691510468452
86.26831370295892,0.0069599708997641
86.29704108014937,0.0062647269864645
86.32576845733983,0.0067139659166995
86.3544958345303,0.0071191774820947
86.38322321172076,0.006999416029907
86.41195058891122,0.0071891279009086
86.44067796610169,0.0072058239173688
86.46940534329215,0.0075633824351183
86.49813272048262,0.0077874596255707
86.52686009767308,0.0069323475483836
86.55558747486354,0.0074460586719639
86.584314852054,0.007417969688195
86.61304222924447,0.007046562357863
86.64176960643492,0.006663870404381
86.67049698362538,0.0065432361608983
86.69922436081585,0.0063414508722727
86.72795173800631,0.0065844839528998
86.75667911519677,0.0066621096564252
86.78540649238724,0.006390999987336
86.8141338695777,0.0060589430217995
86.84286124676817,0.0062443744465308
86.87158862395863,0.006388025564024
86.9003160011491,0.0064176399723605
86.92904337833956,0.0062093223433241
86.95777075553002,0.0059677593575063
86.98649813272047,0.006692655530099
87.01522550991093,0.0065374234403253
87.0439528871014,0.0065211445298912
87.07268026429186,0.007098138581041
87.10140764148233,0.0068330520224757
87.13013501867279,0.0068577245634792
87.15886239586325,0.0069631295431563
87.18758977305372,0.0066956908922463
87.21631715024418,0.0069514381086653
87.24504452743464,0.0066953824671659
87.27377190462511,0.0071151883607147
87.30249928181557,0.0067496309684197
87.33122665900602,0.006992733556192
87.35995403619648,0.0068838228103856
87.38868141338695,0.0066097841442909
87.41740879057741,0.0070445497027381
87.44613616776788,0.0068730339878856
87.47486354495834,0.0062641956824232
87.5035909221488,0.0066192936160378
87.53231829933927,0.0067430368318522
87.56104567652973,0.0065959475739867
87.5897730537202,0.0067306291866993
87.61850043091066,0.0065300102054698
87.64722780810112,0.0065074016996377
87.67595518529157,0.0065446267526665
87.70468256248203,0.0066811903842608
87.7334099396725,0.006384786313514
87.76213731686296,0.0063965370755306
87.79086469405343,0.006861029061729
87.81959207124389,0.0062502846545785
87.84831944843435,0.0062700726367134
87.87704682562482,0.0066921513808893
87.90577420281528,0.0065145000658397
87.93450158000574,0.006281804317649
87.96322895719621,0.0063146647480921
87.99195633438667,0.0060626087417625
88.02068371157712,0.0057804795521871
88.04941108876758,0.0058311466401803
88.07813846595805,0.0059495715973756
88.10686584314851,0.0060555554780542
88.13559322033898,0.0060631112395438
88.16432059752944,0.0063190270786868
88.1930479747199,0.0066077421133523
88.22177535191037,0.0066364348494282
88.25050272910083,0.0065452633091653
88.2792301062913,0.0066000846677767
88.30795748348176,0.0064336800359577
88.33668486067221,0.0066014631504302
88.36541223786267,0.0069842803838688
88.39413961505313,0.0070441838707651
88.4228669922436,0.0070300680950882
88.45159436943406,0.0073222339548936
88.48032174662453,0.007031845910588
88.50904912381499,0.0075537507226806
88.53777650100545,0.0075818317670971
88.56650387819592,0.0072833760536831
88.59523125538638,0.0066814800349485
88.62395863257684,0.006501017000258
88.65268600976731,0.0064888212813576
88.68141338695776,0.0061609940942472
88.71014076414822,0.0060222360172011
88.73886814133868,0.0057902250419156
88.76759551852915,0.0056735656295258
88.79632289571961,0.0058812564750694
88.82505027291008,0.0056615113437657
88.85377765010054,0.0060762801999886
88.882505027291,0.0061204517915919
88.91123240448147,0.004536023321863
88.93995978167193,0.0134217593979273
88.9686871588624,0.0341817756538074
88.99741453605286,0.0404299112062563
89.02614191324331,0.0613439028783972
89.05486929043377,0.0640757350208458
89.08359666762424,0.0588757528077884
89.1123240448147,0.0611110162065699
89.14105142200516,0.062041605082914
89.16977879919563,0.0553429266992098
89.19850617638609,0.0399898106184217
89.22723355357655,0.038865067196977
89.25596093076702,0.0249399884629322
89.28468830795748,0.0173875827685967
89.31341568514794,0.0215274346433098
89.34214306233841,0.0178213655175666
89.37087043952886,0.0178531306660354
89.39959781671932,0.0163981452132633
89.42832519390979,0.0147884948320109
89.45705257110025,0.0113276550399254
89.48577994829071,0.0104226859778858
89.51450732548118,0.0104302848034381
89.54323470267164,0.0088068785955838
89.5719620798621,0.009435209119559
89.60068945705257,0.008465894822553
89.62941683424303,0.0069618595220143
89.6581442114335,0.0075141832018179
89.68687158862396,0.0069652980814736
89.71559896581441,0.0077057611781442
89.74432634300487,0.0075441310706215
89.77305372019534,0.0082852719358133
89.8017810973858,0.0070144978893288
89.83050847457626,0.0072332554647446
89.85923585176673,0.0068142595246745
89.88796322895719,0.0067067526645723
89.91669060614765,0.0072649015952213
89.94541798333812,0.0073189951228664
89.97414536052858,0.0073624086340207
90.00287273771904,0.0072466357701998
90.03160011490951,0.0073327428450549
90.06032749209996,0.0075519865801988
90.08905486929042,0.0073119959260117
90.11778224648089,0.0060150412551523
90.14650962367136,0.0075751783106724
90.1752370008618,0.0071815624087213
90.20396437805228,0.0070879226854575
90.23269175524274,0.0069852371133162
90.2614191324332,0.0067644461506867
90.29014650962368,0.0066966334565325
90.31887388681412,0.0069427289562104
90.3476012640046,0.007311797474391
90.37632864119506,0.0069975206714143
90.40505601838552,0.0070436401913249
90.43378339557596,0.006546802115424
90.46251077276644,0.005802373227709
90.4912381499569,0.0079574772218903
90.51996552714736,0.0071591012297282
90.54869290433784,0.0074510647671894
90.57742028152828,0.0070063677931529
90.60614765871875,0.0070082631508363
90.63487503590922,0.0070496610513384
90.66360241309968,0.006668490364098
90.69232979029016,0.0066357759559983
90.7210571674806,0.0066352660955198
90.74978454467106,0.0060465199355623
90.77851192186152,0.0059654940057932
90.807239299052,0.0070674757045624
90.83596667624244,0.0064635033569129
90.86469405343291,0.0065121488757647
90.89342143062338,0.00693551116572
90.92214880781384,0.0071570355122602
90.9508761850043,0.0072979518401958
90.97960356219475,0.0070592849406511
91.00833093938525,0.0069311230530966
91.0370583165757,0.006590463360601
91.06578569376616,0.0066750522321717
91.0945130709566,0.0073729711057956
91.12324044814709,0.0060291230092649
91.15196782533754,0.0065698381009199
91.180695202528,0.006706060513939
91.20942257971846,0.0068540135439015
91.23814995690891,0.0075647977769665
91.2668773340994,0.0063218338892064
91.29560471128984,0.0068417370459106
91.32433208848032,0.0069214922956098
91.35305946567078,0.0063850836421455
91.38178684286125,0.0065577060487408
91.41051422005172,0.0067120340299434
91.43924159724216,0.0063400456688999
91.46796897443262,0.0065661060389235
91.49669635162309,0.0069293808400588
91.52542372881356,0.0067017050561472
91.554151106004,0.0065814777118755
91.58287848319448,0.0066891641877355
91.61160586038494,0.0064676040099167
91.6403332375754,0.006515077065124
91.66906061476588,0.0066285367144869
91.69778799195632,0.0066001651990302
91.7265153691468,0.0065721312640186
91.75524274633726,0.0065672162812565
91.78397012352772,0.0066024440471937
91.81269750071816,0.006518239796386
91.84142487790864,0.0065481736052629
91.8701522550991,0.0063931899710194
91.89887963228956,0.0060485821071482
91.92760700948004,0.0060420821216009
91.95633438667048,0.006235544086274
91.98506176386095,0.0060732929111361
92.01378914105142,0.0058480779009551
92.04251651824188,0.0061067320570567
92.07124389543236,0.0056694254260785
92.0999712726228,0.0071926928956949
92.12869864981326,0.0068203867064835
92.15742602700372,0.0069175841077958
92.1861534041942,0.0070321385666555
92.21488078138464,0.0071845754415098
92.24360815857511,0.007132425077746
92.27233553576558,0.007026159424778
92.30106291295604,0.0073626430304724
92.3297902901465,0.0075170965973712
92.35851766733695,0.0072114631559626
92.38724504452745,0.0066941108870013
92.4159724217179,0.0068196227452723
92.44469979890836,0.0073236726938408
92.4734271760988,0.0063637392613614
92.50215455328927,0.0066327343690396
92.53088193047974,0.006759443761676
92.5596093076702,0.0063714141975485
92.58833668486066,0.0063713277822927
92.61706406205111,0.006552514572951
92.6457914392416,0.0065273589951671
92.67451881643206,0.0061613916621346
92.70324619362252,0.0062206007628473
92.73197357081298,0.0066162718603956
92.76070094800345,0.0067853655171619
92.78942832519392,0.0062837177339958
92.81815570238436,0.0064357601298969
92.84688307957482,0.0065033336275805
92.87561045676529,0.0060944430395307
92.90433783395576,0.0075523336279045
92.9330652111462,0.028252059214789516
