timestamp,emg
0.0,0.0044206786955837
0.0287273771904625,0.0042055733604014
0.057454754380925,0.004327180971547
0.0861821315713875,0.0044759666183744
0.11490950876185,0.0047748069624567
0.1436368859523125,0.0046055460208776
0.172364263142775,0.0040969710580108
0.2010916403332375,0.0044804485021286
0.2298190175237,0.0044384352464116
0.2585463947141626,0.0045096028075454
0.2872737719046251,0.0045379933699164
0.3160011490950876,0.0044907992393451
0.3447285262855501,0.0046192053074717
0.3734559034760126,0.0047256382550786
0.4021832806664751,0.0047791866473004
0.4309106578569376,0.0049798117529349
0.4596380350474001,0.0048520107368393
0.4883654122378627,0.0050808433131452
0.5170927894283252,0.0058084201336972
0.5458201666187876,0.0008442622494991
0.5745475438092502,0.000213299326836
0.6032749209997127,0.0073749639392977
0.6320022981901752,0.0474598080650861
0.6607296753806376,0.0556424403496516
0.6894570525711002,0.0403428907560665
0.7181844297615627,0.0483689015650291
0.7469118069520252,0.0503271874970448
0.7756391841424878,0.0494282657878714
0.8043665613329503,0.0509635489557623
0.8330939385234127,0.0406943204687344
0.8618213157138752,0.0509280721943557
0.8905486929043378,0.0521861644672266
0.9192760700948004,0.02635479979539473
0.9480034472852628,0.0052544014098156
0.9767308244757252,0.0042146392561473
1.0054582016661875,0.0048512009760888
1.0341855788566503,0.0045434945253224
1.062912956047113,0.0049413066231932
1.0916403332375753,0.0043392555139777
1.1203677104280378,0.0047520041259748
1.1490950876185004,0.0037396399386306
1.1778224648089628,0.004462895046906
1.2065498419994254,0.0043886762387083
1.235277219189888,0.0043644591484485
1.2640045963803503,0.0044813422531974
1.292731973570813,0.0050647538521316
1.3214593507612753,0.0044462783445413
1.350186727951738,0.0046149444705005
1.3789141051422005,0.004535469988576
1.4076414823326628,0.0045869833024314
1.4363688595231254,0.004499668302915
1.465096236713588,0.0044380822133208
1.4938236139040504,0.004514991033705
1.522550991094513,0.0045513688147762
1.5512783682849756,0.0044931143912951
1.580005745475438,0.0044305587434272
1.6087331226659003,0.0044378185937579
1.637460499856363,0.0044910222623601
1.6661878770468257,0.0046087480406832
1.694915254237288,0.0047349071639052
1.7236426314277504,0.0047484025046495
1.752370008618213,0.0047007479593803
1.7810973858086756,0.004703275121112
1.809824762999138,0.0047628043756353
1.8385521401896008,0.0047083602703146
1.8672795173800631,0.0047756893952695
1.8960068945705255,0.0048342909161876
1.924734271760988,0.004416843491535
1.9534616489514507,0.0045973421114793
1.982189026141913,0.0045308764396098
2.010916403332375,0.0041703746832655
2.0396437805228382,0.004489923826472
2.0683711577133006,0.0046378089328978
2.097098534903763,0.0039195320855232
2.125825912094226,0.004298516033797
2.154553289284688,0.004523685921255
2.1832806664751505,0.0044335311006075
2.2120080436656133,0.0043014761152632
2.2407354208560757,0.0045203696860876
2.269462798046538,0.0045504706724023
2.298190175237001,0.0044809429896116
2.3269175524274632,0.0042763585416767
2.3556449296179256,0.004580168220072
2.3843723068083884,0.004867346280286
2.4130996839988508,0.0045018105095899
2.441827061189313,0.0044299076687984
2.470554438379776,0.0042157067985413
2.4992818155702383,0.0045131285227971
2.5280091927607007,0.0045447473502895
2.5567365699511635,0.0043182378192732
2.585463947141626,0.004256713190586
2.614191324332088,0.0036686299349591
2.6429187015225506,0.0052788973267547
2.6716460787130134,0.0045207321354681
2.700373455903476,0.0046378991994082
2.729100833093938,0.0045576040075334
2.757828210284401,0.004780442379781
2.7865555874748633,0.0046316630233002
2.8152829646653257,0.004784898082948
2.8440103418557885,0.004840535851516
2.872737719046251,0.0047171150528357
2.9014650962367132,0.0048341081270278
2.930192473427176,0.0048523604613544
2.9589198506176384,0.0049393740250477
2.9876472278081008,0.0045160058243659
3.0163746049985636,0.004628670260883
3.045101982189026,0.0044111395318873
3.0738293593794883,0.0044109696007635
3.102556736569951,0.0045038411541135
3.1312841137604135,0.0045286905130716
3.160011490950876,0.0044573513983555
3.1887388681413387,0.0045219887899772
3.217466245331801,0.0047487235830121
3.2461936225222634,0.0048808711376623
3.274920999712726,0.0048384350202415
3.303648376903189,0.0047269428972582
3.332375754093651,0.0047064360271845
3.3611031312841133,0.0046876946991894
3.389830508474576,0.0046450337186931
3.4185578856650385,0.0051259370768952
3.447285262855501,0.0047194991042321
3.4760126400459637,0.0038430450661033
3.504740017236426,0.0045734405871979
3.5334673944268884,0.0042563413619184
3.562194771617351,0.0041833491292845
3.5909221488078136,0.0044253955225412
3.619649525998276,0.0045369254730465
3.648376903188739,0.0044917238519539
3.677104280379201,0.0044865458596721
3.705831657569663,0.0047104725514513
3.7345590347601263,0.0046954631124774
3.7632864119505887,0.004715518326697
3.792013789141051,0.0047323680294607
3.820741166331514,0.0045933235611969
3.849468543521976,0.0043473421578916
3.8781959207124386,0.0043648891056791
3.9069232979029014,0.0044800168014393
3.935650675093364,0.0041800526309562
3.964378052283826,0.0041834955892405
3.993105429474289,0.0041440878618705
4.021832806664751,0.0040794752606893
4.050560183855214,0.0041179279179997
4.0792875610456765,0.0041311581541739
4.108014938236138,0.0043330155588906
4.136742315426601,0.0044475646587693
4.165469692617064,0.0043250298596403
4.194197069807526,0.0045311654822799
4.222924446997989,0.0046756912803528
4.251651824188452,0.0046035644830178
4.2803792013789135,0.0047045254408099
4.309106578569376,0.0048456516973066
4.337833955759839,0.0046636138139502
4.366561332950301,0.004882022726701
4.395288710140764,0.0048182121213574
4.424016087331227,0.0041873786375084
4.452743464521689,0.0046549076576369
4.481470841712151,0.0045724452061158
4.510198218902614,0.0043993997847231
4.538925596093076,0.0044154199806537
4.567652973283539,0.0040872950056832
4.596380350474002,0.0046113586481405
4.625107727664464,0.0020808556414867
4.6538351048549265,0.0097673693631961
4.682562482045389,0.0217907519130586
4.711289859235851,0.0285677692003594
4.740017236426314,0.0326559107328537
4.768744613616777,0.0373272889039119
4.797471990807239,0.0339284446497138
4.8261993679977016,0.0343533486961752
4.854926745188164,0.0364362568726176
4.883654122378626,0.0300525726214789
4.912381499569089,0.0193787948013608
4.941108876759552,0.0226696939233773
4.969836253950014,0.0121324696172558
4.998563631140477,0.0029688515623756
5.0272910083309394,0.003249815405169
5.056018385521401,0.0048554014546093
5.084745762711864,0.0043732841255764
5.113473139902327,0.0043097807470616
5.142200517092789,0.0044981891587385
5.170927894283252,0.0046163877068445
5.199655271473714,0.0046086138846823
5.2283826486641765,0.0046047394028284
5.257110025854639,0.004687005002716
5.285837403045101,0.0046228612126322
5.314564780235564,0.0046972226632423
5.343292157426027,0.0045912076962248
5.372019534616489,0.0044861124889214
5.4007469118069515,0.0046170902084353
5.429474288997414,0.005431034258695
5.458201666187876,0.0034896386038905
5.486929043378339,0.004336353225416
5.515656420568802,0.0048202527219626
5.544383797759264,0.004479064905532
5.573111174949727,0.0044448371915429
5.601838552140189,0.004645091018642
5.630565929330651,0.0045669411095267
5.659293306521114,0.0043765140474969
5.688020683711577,0.0045170962366789
5.716748060902039,0.0043801994306732
5.745475438092502,0.0047990220024309
5.7742028152829645,0.0045224187848446
5.8029301924734265,0.0043324786269793
5.831657569663889,0.0046794672154408
5.860384946854352,0.0044617380669072
5.889112324044814,0.0043768936489345
5.917839701235277,0.004339499901974
5.94656707842574,0.0042596968089711
5.9752944556162015,0.0044227437226637
6.004021832806664,0.0045100766080206
6.032749209997127,0.0042718551524995
6.061476587187589,0.004696792884276
6.090203964378052,0.004632557524875
6.118931341568515,0.0044716252580467
6.147658718758977,0.0045588171331371
6.176386095949439,0.0044949348701269
6.205113473139902,0.0042889999964543
6.233840850330364,0.0042275161070203
6.262568227520827,0.0042503775266284
6.29129560471129,0.0041808143750907
6.320022981901752,0.0042140114473489
6.3487503590922145,0.0043012665316611
6.377477736282677,0.0043373545285969
6.406205113473139,0.0044161742909855
6.434932490663602,0.0045213489833493
6.463659867854065,0.0045074906584799
6.492387245044527,0.004451369413278
6.52111462223499,0.0045010670400163
6.549841999425452,0.0054625811737418
6.578569376615914,0.0036047944201885
6.607296753806377,0.0044204017843728
6.636024130996839,0.0036819749675263
6.664751508187302,0.0042303427389492
6.693478885377765,0.0043299359286215
6.722206262568227,0.0041894762210044
6.750933639758689,0.0043471726282441
6.779661016949152,0.0043469892275379
6.808388394139614,0.0043652018862156
6.837115771330077,0.0045487310527364
6.86584314852054,0.0045462936076974
6.894570525711002,0.0044859118239183
6.9232979029014645,0.0046125822724511
6.952025280091927,0.0046465047006314
6.980752657282389,0.0044972948940359
7.009480034472852,0.0044692505368339
7.038207411663315,0.0044580709394854
7.066934788853777,0.0043963520091062
7.09566216604424,0.0043633517608389
7.124389543234702,0.0043313756120049
7.153116920425164,0.0042320652783995
7.181844297615627,0.0040258392745552
7.21057167480609,0.0040017897495247
7.239299051996552,0.004420287469883
7.268026429187015,0.0042616149897176
7.296753806377477,0.0041212344239529
7.325481183567939,0.0042319269365868
7.354208560758402,0.0043923294624054
7.382935937948865,0.0041186458756942
7.411663315139327,0.004048953049145
7.44039069232979,0.0044848414180682
7.469118069520253,0.0041658772198025
7.497845446710715,0.0041252540346966
7.526572823901177,0.0042205428605001
7.55530020109164,0.0042895320496688
7.584027578282102,0.0044270033930274
7.612754955472565,0.0041974700482113
7.641482332663028,0.0041834573190555
7.67020970985349,0.0044910215853872
7.698937087043952,0.0042454631333824
7.727664464234415,0.0042776148959253
7.756391841424877,0.0042833164468557
7.78511921861534,0.0042032589963732
7.813846595805803,0.0042257145581482
7.842573972996265,0.0041937294936533
7.871301350186728,0.0040481550509761
7.90002872737719,0.0041733040649361
7.928756104567652,0.0042821268378607
7.957483481758115,0.0041425803480261
7.986210858948578,0.0042894625663407
8.01493823613904,0.0045577527246224
8.043665613329502,0.0047383897272906
8.072392990519965,0.0048614085609352
8.101120367710427,0.0049711928831963
8.12984774490089,0.0049649038108758
8.158575122091353,0.0050201334953839
8.187302499281815,0.0051898743915797
8.216029876472277,0.0051853937810096
8.24475725366274,0.0049341488230857
8.273484630853202,0.004867651254822
8.302212008043664,0.0049878479946459
8.330939385234128,0.0049615279681938
8.35966676242459,0.004707047137784
8.388394139615052,0.0048427218313339
8.417121516805516,0.0047208063587589
8.445848893995977,0.0047202815821016
8.47457627118644,0.004740296156679
8.503303648376903,0.0059226608327623
8.532031025567365,0.0021527880747592
8.560758402757827,0.005601574197689
8.58948577994829,0.0287951371359384
8.618213157138753,0.036425142767057
8.646940534329215,0.0397721700610786
8.675667911519678,0.0405859852881949
8.70439528871014,0.0405023582677662
8.733122665900602,0.0401451052084939
8.761850043091066,0.0414256967839714
8.790577420281528,0.0418760394252391
8.81930479747199,0.0317000816903856
8.848032174662453,0.0125525441057371
8.876759551852915,0.0049856702217139
8.905486929043377,0.0073402366161745
8.93421430623384,0.0070110704943034
8.962941683424303,0.0058222740504956
8.991669060614765,0.0057326401077932
9.020396437805228,0.006273542066436
9.04912381499569,0.0039502236041309
9.077851192186152,0.0045610980723321
9.106578569376616,0.0043525184356695
9.135305946567078,0.0044544552026487
9.16403332375754,0.0043879268487376
9.192760700948003,0.0042524591429798
9.221488078138464,0.0044197446800235
9.250215455328927,0.0044858051318364
9.278942832519393,0.0041492270055323
9.307670209709851,0.0041715747689089
9.336397586900317,0.0047984015551453
9.36512496409078,0.0044848528647696
9.39385234128124,0.004681955706572
9.422579718471702,0.0046591333770614
9.451307095662166,0.0046689890264909
9.480034472852628,0.0047320651490659
9.50876185004309,0.0049883932212293
9.537489227233554,0.004666295384711
9.566216604424016,0.0043063735840408
9.594943981614476,0.0047759334717284
9.62367135880494,0.0048875848817661
9.652398735995405,0.0046795698026384
9.681126113185863,0.0047103071001343
9.709853490376329,0.0047174244570265
9.73858086756679,0.0048765020129516
9.767308244757253,0.0049241552690303
9.796035621947716,0.0068760433820617
9.824762999138178,0.0034432978365863
9.85349037632864,0.0038986073835216
9.882217753519104,0.0048643070421834
9.910945130709566,0.0049324967404726
9.939672507900028,0.0049278269753483
9.968399885090491,0.0048499083208702
9.997127262280951,0.0049198541937054
10.025854639471415,0.0048582120535943
10.05458201666188,0.005006036656333
10.08330939385234,0.0051026888013504
10.112036771042805,0.0050581533335787
10.140764148233266,0.0050966804342407
10.169491525423728,0.004775176487979
10.19821890261419,0.004890184840678
10.226946279804654,0.0050194932826795
10.255673656995116,0.0049624756780532
10.284401034185578,0.0049542894708249
10.31312841137604,0.0050629786734308
10.341855788566503,0.005073536463925
10.370583165756964,0.0049191388884086
10.399310542947427,0.0052196430041012
10.428037920137893,0.0049763783310253
10.456765297328351,0.0048378508516264
10.485492674518817,0.0048522467135979
10.51422005170928,0.0048536118111075
10.54294742889974,0.0049905092637048
10.571674806090202,0.0051092159729984
10.600402183280666,0.0049761715686449
10.629129560471128,0.0051022739481602
10.65785693766159,0.005176563568298
10.686584314852054,0.0050405817620839
10.715311692042516,0.0051069269634811
10.744039069232976,0.0050432258810165
10.77276644642344,0.0046893840955413
10.801493823613905,0.004707779796907
10.830221200804363,0.0048398913084251
10.858948577994829,0.0047578991144106
10.88767595518529,0.0046005971067341
10.916403332375753,0.0046620329543694
10.945130709566216,0.0044595579906945
10.973858086756678,0.0044814070299588
11.00258546394714,0.0046690089937067
11.031312841137604,0.0047464572534004
11.060040218328066,0.0045705703852277
11.088767595518528,0.0045138749392347
11.117494972708991,0.0046803467961439
11.146222349899451,0.0048688349952499
11.174949727089915,0.0049687607341389
11.20367710428038,0.0049524833500606
11.23240448147084,0.004960815205139
11.261131858661305,0.0050651867608876
11.289859235851766,0.0050137498412561
11.318586613042228,0.0051288732269944
11.34731399023269,0.0051151456760528
11.376041367423154,0.0045616229963806
11.404768744613616,0.0049748020550637
11.433496121804078,0.0051406677537157
11.462223498994542,0.0049545196421044
11.490950876185003,0.0048802889011845
11.519678253375464,0.0049812078652913
11.548405630565927,0.0048384584905621
11.577133007756393,0.0047445272950173
11.605860384946851,0.0046503006394408
11.634587762137317,0.0045611101898144
11.66331513932778,0.0047254846937719
11.69204251651824,0.0045998138953073
11.720769893708704,0.004701115752784
11.749497270899166,0.004994159754529
11.778224648089628,0.004664566966055
11.806952025280092,0.0046893371898959
11.835679402470554,0.0048434507230733
11.864406779661016,0.0045662442161608
11.89313415685148,0.0045819489021837
11.92186153404194,0.004769985850018
11.950588911232405,0.0046859339599754
11.979316288422869,0.004460831056286
12.008043665613329,0.0050845113871247
12.03677104280379,0.0055514318678081
12.065498419994254,0.0058572079870878
12.094225797184716,0.0060155965329588
12.122953174375178,0.0058627870244635
12.151680551565642,0.0057433036895601
12.180407928756104,0.0058717631178015
12.209135305946566,0.0058171657314596
12.23786268313703,0.005805026121477
12.266590060327491,0.0053968689822428
12.295317437517951,0.0047307299909688
12.324044814708415,0.0044134205424272
12.35277219189888,0.0044196595839667
12.38149956908934,0.0044959403196015
12.410226946279804,0.0045712142475878
12.438954323470266,0.0045354619922758
12.467681700660728,0.0045936848772101
12.496409077851192,0.0046000193967138
12.525136455041654,0.011758790344271
12.553863832232116,0.0332037473778198
12.58259120942258,0.0482881296761035
12.611318586613042,0.0486994452808635
12.640045963803503,0.0482253198456051
12.668773340993967,0.0502004849423213
12.697500718184427,0.0544305487940443
12.726228095374893,0.0324096776000093
12.754955472565356,0.0391150187737787
12.783682849755817,0.013832483564154481
12.81241022694628,0.01332475104360673
12.841137604136742,0.017201699677722216
12.869864981327204,0.0250067453190143
12.898592358517666,0.0055303838454157
12.92731973570813,0.0064008155203634
12.956047112898592,0.0048371097407029
12.984774490089054,0.0059014498418297
13.013501867279516,0.0055649104432279
13.04222924446998,0.0047493414219106
13.07095662166044,0.0051737648007516
13.099683998850905,0.0053459086276237
13.128411376041369,0.0052233907604628
13.157138753231829,0.0052405994931466
13.185866130422292,0.0051956126446851
13.214593507612754,0.0050700911622885
13.243320884803216,0.0051082658352588
13.272048261993678,0.0050895198013305
13.300775639184142,0.0050282493339907
13.329503016374604,0.0051009699315447
13.358230393565066,0.005226896554763
13.38695777075553,0.0051890252072834
13.415685147945991,0.0051787970069971
13.444412525136451,0.0052334651800671
13.473139902326915,0.0051972356666121
13.50186727951738,0.0052294361109858
13.53059465670784,0.005462089995998
13.559322033898304,0.005545291491269
13.588049411088766,0.0053680424952056
13.616776788279228,0.0052203681070682
13.645504165469692,0.0052212168266007
13.674231542660154,0.0050913788601955
13.702958919850616,0.0050574096406584
13.73168629704108,0.005104496359548
13.76041367423154,0.0048910742136858
13.789141051422003,0.0048094211458793
13.817868428612467,0.0049433399981685
13.846595805802927,0.004819073142961
13.875323182993393,0.0050961053700339
13.904050560183856,0.005020899898102
13.932777937374317,0.004886626288527
13.96150531456478,0.0049571087936946
13.990232691755242,0.0049400038719107
14.018960068945704,0.0047378451863472
14.047687446136166,0.0046827275306478
14.07641482332663,0.0049448833326416
14.105142200517092,0.0047479835757614
14.133869577707554,0.0046778188555482
14.162596954898016,0.0050112494285143
14.19132433208848,0.0049135234629852
14.22005170927894,0.0048197171107394
14.248779086469405,0.0050866940982832
14.277506463659869,0.0049885435682057
14.306233840850329,0.0049905269122599
14.334961218040792,0.0050450824938923
14.363688595231254,0.0050328260022536
14.392415972421716,0.0050526946598086
14.42114334961218,0.0050439890495467
14.449870726802642,0.0049895117971043
14.478598103993104,0.0050319552757284
14.507325481183567,0.0048616972414832
14.53605285837403,0.0047295949046171
14.564780235564491,0.0049505958164266
14.593507612754957,0.0046845422194659
14.622234989945415,0.0047173149026438
14.65096236713588,0.0048121961268525
14.679689744326344,0.0046760544236378
14.708417121516804,0.0042464612388792
14.737144498707266,0.0051705792566628
14.76587187589773,0.0046908584019471
14.794599253088192,0.0046382686227425
14.823326630278654,0.0047134215477064
14.852054007469118,0.0048992274779433
14.88078138465958,0.0053184865175489
14.90950876185004,0.0044895338424709
14.938236139040503,0.0047741631014459
14.966963516230969,0.0046867775020192
14.995690893421427,0.0049510693961225
15.024418270611893,0.0049599110443081
15.053145647802356,0.0047909062062753
15.081873024992817,0.0046042505115756
15.11060040218328,0.0042398692217688
15.139327779373742,0.0049847239285298
15.168055156564204,0.0046127278762372
15.196782533754668,0.0047934379386283
15.22550991094513,0.0044767943282165
15.254237288135592,0.0045820688472328
15.282964665326055,0.0049086901440256
15.311692042516515,0.0048622220908936
15.34041941970698,0.0046585883825199
15.369146796897445,0.004693368047495
15.397874174087905,0.0049841288747098
15.426601551278369,0.0050778315129817
15.45532892846883,0.0051202456284315
15.484056305659292,0.004260806412123
15.512783682849754,0.0056889449761416
15.541511060040218,0.0055984586278877
15.57023843723068,0.0051094038515616
15.598965814421142,0.0050566473860252
15.627693191611606,0.0047958952464106
15.656420568802067,0.0046711846917287
15.68514794599253,0.0040605016118452
15.713875323182991,0.0054609544827148
15.742602700373457,0.0048507524392051
15.771330077563915,0.0048506298772436
15.80005745475438,0.0045665084091814
15.828784831944844,0.0046677554600415
15.857512209135304,0.0052433379636106
15.886239586325768,0.0050288377013407
15.91496696351623,0.0049121012251444
15.943694340706692,0.0049037159640387
15.972421717897156,0.0049390234884435
16.001149095087616,0.0050412126852806
16.02987647227808,0.0048956391537337
16.058603849468543,0.0047935521609269
16.087331226659003,0.0048956083159739
16.116058603849467,0.0047344316979487
16.14478598103993,0.004424458667887
16.17351335823039,0.0048290035844747
16.202240735420855,0.0045135648361343
16.23096811261132,0.0046614383732663
16.25969548980178,0.0047811807685733
16.288422866992242,0.0048533034812453
16.317150244182706,0.0047889968228214
16.345877621373166,0.0046819629846945
16.37460499856363,0.0047884784588119
16.403332375754093,0.0045734564989699
16.432059752944554,0.0059880595344962
16.460787130135017,0.0027973683902769
16.48951450732548,0.016196734269776466
16.51824188451594,0.0181553205804423
16.546969261706405,0.0312534108509422
16.57569663889687,0.0344127897635313
16.60442401608733,0.0384520203361907
16.633151393277792,0.0426677626458078
16.661878770468256,0.0414400403653846
16.690606147658716,0.0406834102628456
16.71933352484918,0.0474306453028801
16.748060902039644,0.0293270326517254
16.776788279230104,0.0164210334081379
16.805515656420567,0.0138222955980131
16.83424303361103,0.0081961559818218
16.86297041080149,0.0061982893669058
16.891697787991955,0.0056809542355448
16.92042516518242,0.0056098075943001
16.94915254237288,0.0060067457992344
16.977879919563343,0.0050847747294558
17.006607296753806,0.00473904479495
17.035334673944266,0.0050520185002839
17.06406205113473,0.0050478105868049
17.092789428325194,0.0048969310934854
17.121516805515654,0.0053502868993698
17.150244182706118,0.0052522763943405
17.17897155989658,0.0050618546562332
17.20769893708704,0.0053339773414448
17.236426314277505,0.0052476337718193
17.26515369146797,0.0049541567911789
17.29388106865843,0.0048997856048327
17.322608445848893,0.0050316958419479
17.351335823039356,0.0048582214236124
17.380063200229817,0.0048248696732666
17.40879057742028,0.0050073605491353
17.437517954610744,0.0048058052003913
17.466245331801204,0.0047129988945317
17.494972708991668,0.0047910224953836
17.52370008618213,0.0048435650098437
17.55242746337259,0.0051961794730482
17.581154840563055,0.0049394427879858
17.60988221775352,0.0046166989783178
17.63860959494398,0.0049877905136199
17.667336972134443,0.0051021979181991
17.696064349324907,0.005089441200108
17.724791726515367,0.0050258290851227
17.75351910370583,0.0048895431718126
17.782246480896294,0.0048639068172585
17.810973858086754,0.0049389974934186
17.839701235277218,0.0049954967336613
17.86842861246768,0.0049998440466485
17.897155989658142,0.0049262471960285
17.925883366848606,0.0049071148333762
17.95461074403907,0.0049263484316556
17.98333812122953,0.0049864852181839
18.012065498419993,0.0048569038300494
18.040792875610457,0.0050824057588551
18.069520252800917,0.0050165100153958
18.09824762999138,0.0051151175549106
18.126975007181844,0.0050147784557197
18.155702384372304,0.0048720126612394
18.184429761562768,0.0049554576348478
18.213157138753232,0.0050363888826019
18.241884515943692,0.0049217256059324
18.270611893134156,0.0048151514489544
18.29933927032462,0.0047712430697816
18.32806664751508,0.0046284745442979
18.356794024705543,0.0046928377321896
18.385521401896007,0.0051323310840132
18.414248779086467,0.0045437107657055
18.44297615627693,0.0046431299534697
18.47170353346739,0.00479217190159
18.500430910657855,0.0047724643241337
18.52915828784832,0.0047563635817729
18.557885665038786,0.0047613519376417
18.58661304222924,0.0048633142794922
18.615340419419702,0.0050986378575964
18.64406779661017,0.0049443744009495
18.67279517380063,0.004670337888654
18.701522550991093,0.004722677605575
18.730249928181557,0.004797574235216
18.758977305372017,0.0049871497957097
18.78770468256248,0.0049839173149446
18.816432059752945,0.0048644672931464
18.845159436943405,0.0048045755423906
18.87388681413387,0.0049036965670407
18.902614191324332,0.0047859200154945
18.931341568514792,0.0050432207661833
18.960068945705256,0.0054024171103379
18.98879632289572,0.0052146793341311
19.01752370008618,0.0051591273306345
19.046251077276644,0.0049918662829796
19.074978454467107,0.0052579331211438
19.103705831657567,0.0054655969517178
19.13243320884803,0.0053942513004412
19.161160586038495,0.005433229347272
19.189887963228955,0.0048171136548514
19.21861534041942,0.0052011508555483
19.24734271760988,0.0053031774628077
19.276070094800343,0.0052862559669638
19.30479747199081,0.0049917441760087
19.33352484918127,0.0050634164147201
19.36225222637173,0.0050384366230202
19.390979603562194,0.0051791875000941
19.419706980752657,0.005022518652304
19.44843435794312,0.0048971873235796
19.47716173513358,0.0047167443437872
19.505889112324045,0.0048610538090894
19.534616489514505,0.0048604827209081
19.56334386670497,0.0053470600542585
19.592071243895433,0.0062022217753785
19.620798621085893,0.0037762559940965
19.649525998276356,0.0045809160721473
19.67825337546682,0.004682397907971
19.70698075265728,0.0047322474824055
19.735708129847744,0.0045719397586136
19.764435507038208,0.0045229080313608
19.793162884228668,0.0043728708309485
19.82189026141913,0.0056825484943451
19.850617638609595,0.0049018386457705
19.879345015800055,0.0049482499695691
19.90807239299052,0.0049225369311147
19.936799770180983,0.0049044853381536
19.965527147371443,0.0048457102198583
19.994254524561907,0.0047359431987825
20.02298190175237,0.0047535570499534
20.05170927894283,0.0046551981632374
20.080436656133298,0.0045661496233935
20.10916403332376,0.0047485630321061
20.137891410514214,0.0047708816736223
20.16661878770468,0.004689107722508
20.195346164895145,0.0047824390972764
20.224073542085605,0.0045538277552124
20.25280091927607,0.0042304400851267
20.281528296466533,0.0044734533593782
20.310255673656993,0.0044196675489996
20.338983050847457,0.0044673609851146
20.36771042803792,0.0043641417313289
20.39643780522838,0.0041416572937581
20.425165182418844,0.0044526622718964
20.453892559609308,0.0045595071453237
20.482619936799768,0.0039271717894619
20.511347313990232,0.0045423558794031
20.540074691180696,0.02081270007538795
20.568802068371156,0.0332195803187546
20.59752944556162,0.0376009460614704
20.62625682275208,0.041026639257914
20.654984199942543,0.0465519963379796
20.683711577133007,0.0476181577724588
20.712438954323467,0.046869564121984
20.74116633151393,0.047580698157921
20.76989370870439,0.0394998724437626
20.798621085894855,0.0646099733813225
20.82734846308532,0.0488324378440634
20.856075840275786,0.02833026841900287
20.88480321746624,0.00685200581083
20.913530594656702,0.0053362931969996
20.94225797184717,0.0048510278370391
20.97098534903763,0.0051192859312711
20.999712726228093,0.0068474772269342
21.028440103418557,0.0045479445935349
21.057167480609017,0.0049593948172976
21.08589485779948,0.0053517866334475
21.114622234989945,0.0049957522292784
21.143349612180405,0.0050146348062852
21.17207698937087,0.0052794937776886
21.200804366561332,0.0049489057032096
21.229531743751792,0.0050305844972687
21.258259120942256,0.0052396199558343
21.28698649813272,0.0053320138437767
21.31571387532318,0.0053113270726755
21.344441252513644,0.0052863369467732
21.373168629704107,0.0053113355898819
21.401896006894567,0.0053163176821182
21.43062338408503,0.0053094208241482
21.459350761275495,0.0053136838131107
21.488078138465955,0.0048559255850764
21.51680551565642,0.0048951182321446
21.54553289284688,0.0048190237610261
21.574260270037342,0.0056188169316736
21.60298764722781,0.0065519574394199
21.63171502441827,0.0037404893768126
21.66044240160873,0.0049367866295606
21.689169778799194,0.0056102950453045
21.717897155989657,0.0052117433798658
21.74662453318012,0.0051167577415328
21.77535191037058,0.0050732101798899
21.804079287561045,0.0049853775750133
21.832806664751505,0.0049478339347171
21.86153404194197,0.00497422589521
21.890261419132433,0.0050079772238144
21.918988796322893,0.005011830460068
21.947716173513356,0.0050387801004146
21.97644355070382,0.0051723818455939
22.00517092789428,0.0052670628802242
22.033898305084744,0.0051823865887296
22.062625682275208,0.0050160687938176
22.091353059465668,0.0051666745898905
22.12008043665613,0.0052868150136754
22.148807813846595,0.0051358479511963
22.177535191037055,0.004939401514493
22.20626256822752,0.0049051659623712
22.234989945417983,0.0048499766702883
22.263717322608443,0.0048593005647288
22.292444699798907,0.0050409908878752
22.32117207698937,0.0050481181303917
22.34989945417983,0.0047906308124678
22.378626831370298,0.0052862987052644
22.40735420856076,0.0051119735774495
22.436081585751214,0.0051861714242829
22.46480896294168,0.0051212934509372
22.493536340132145,0.0050473297422955
22.522263717322605,0.0052258844902832
22.55099109451307,0.005381298343655
22.579718471703533,0.0048864209358955
22.608445848893993,0.0049632169626859
22.637173226084457,0.0049534771922627
22.66590060327492,0.0049802260908325
22.69462798046538,0.0048902408369058
22.723355357655844,0.004757849644057
22.752082734846308,0.0047191997654968
22.780810112036768,0.00475113893949
22.809537489227232,0.0044942103051409
22.838264866417695,0.0051018009410276
22.866992243608156,0.0051607772397107
22.89571962079862,0.0046201645125292
22.924446997989083,0.0048126792246985
22.953174375179543,0.0047826566930679
22.981901752370007,0.00491009151538
23.01062912956047,0.0050906938998781
23.03935650675093,0.0047227819233398
23.06808388394139,0.0047537811059757
23.096811261131855,0.0050956049445601
23.12553863832232,0.0050322515618892
23.154266015512786,0.0049596899667145
23.18299339270325,0.0051122834972755
23.211720769893702,0.0050983776350781
23.24044814708417,0.0052771194694687
23.269175524274633,0.0049783289778289
23.297902901465093,0.0048885467102361
23.326630278655557,0.0041648385028041
23.35535765584602,0.0046770271694447
23.38408503303648,0.0056912183219436
23.412812410226945,0.0035385316497238
23.44153978741741,0.004694104206599
23.47026716460787,0.0048359316929725
23.498994541798332,0.0045880115495127
23.527721918988796,0.004638453529498
23.556449296179256,0.0047962747463711
23.58517667336972,0.0048639065414107
23.613904050560183,0.0047960140512638
23.642631427750644,0.0049742419008264
23.671358804941107,0.0047231302032882
23.70008618213157,0.0048591123051549
23.72881355932203,0.004800778084077
23.757540936512495,0.0048106886864843
23.78626831370296,0.0047480744172148
23.81499569089342,0.0047499173711797
23.84372306808388,0.0047959628824905
23.872450445274342,0.0046850636350924
23.90117782246481,0.0047581068181438
23.92990519965527,0.0048493516401985
23.958632576845737,0.0048465366586714
23.987359954036194,0.004856239643797
24.016087331226657,0.0051302259165893
24.04481470841712,0.0049599969638533
24.07354208560758,0.0048166256216814
24.102269462798045,0.0051582386278934
24.13099683998851,0.0049374580507542
24.15972421717897,0.0052000796870257
24.188451594369432,0.0043248963347947
24.217178971559896,0.0046081507805716
24.245906348750356,0.0046077779955967
24.27463372594082,0.0044581333603125
24.303361103131284,0.0044433547850943
24.332088480321744,0.0044472105923311
24.360815857512208,0.0044795499165448
24.38954323470267,0.0045800141890169
24.41827061189313,0.0046783799443771
24.446997989083595,0.0045180228861393
24.47572536627406,0.0041816220100619
24.50445274346452,0.0082345420441703
24.533180120654983,0.0037670021767509
24.561907497845446,0.02244514004185715
24.590634875035907,0.0289116419341038
24.61936225222637,0.0497546109150804
24.64808962941683,0.0398214211709756
24.676817006607298,0.0445780150317391
24.70554438379776,0.046045421331296
24.73427176098822,0.0458851756303952
24.76299913817868,0.0462880477625218
24.791726515369145,0.0633417924201366
24.82045389255961,0.02707573872946012
24.84918126975007,0.02671023841024712
24.877908646940533,0.0137130242247361
24.906636024130997,0.0063352800280298
24.935363401321457,0.0035075472965983
24.96409077851192,0.005171005890312
24.992818155702384,0.0050940637172986
25.021545532892844,0.0048525257812757
25.050272910083308,0.0051621481446606
25.07900028727377,0.0051787882530359
25.10772766446423,0.0049919069577337
25.136455041654695,0.0055206188009159
25.16518241884516,0.0058143078349869
25.19390979603562,0.0058666681234056
25.222637173226083,0.0060044031957389
25.251364550416547,0.0059772990464355
25.280091927607007,0.0060748740884306
25.30881930479747,0.0061849755035528
25.337546681987934,0.0059633123475586
25.36627405917839,0.0058291814222569
25.395001436368855,0.0059614963200841
25.42372881355932,0.0060220134124003
25.452456190749785,0.0056549470908626
25.48118356794025,0.006144310901467
25.50991094513071,0.0061853118381519
25.53863832232117,0.0058232999943845
25.567365699511633,0.0058721614000071
25.596093076702097,0.0057043372091109
25.624820453892557,0.0056034817125045
25.65354783108302,0.0055783883891889
25.682275208273484,0.0053351315032469
25.711002585463945,0.0051185979729821
25.73972996265441,0.0054760270136198
25.768457339844872,0.0069669281455317
25.797184717035332,0.0036902056333307
25.825912094225796,0.00149818628687
25.85463947141626,0.0044643413243984995
25.88336684860672,0.014121293139802567
25.912094225797183,0.001199756282759628
25.940821602987647,0.005428808539184866
25.969548980178107,0.0034022968936919
25.99827635736857,0.0043788444814085
26.027003734559035,0.0050063191130481
26.055731111749495,0.0057515922214813
26.08445848893996,0.0058499304883256
26.113185866130426,0.0059980744029588
26.14191324332088,0.0054567022946126
26.170640620511342,0.0056804713337337
26.19936799770181,0.0055262356230427
26.22809537489227,0.006017026397958
26.256822752082737,0.0057931649503105
26.285550129273197,0.0054215531889489
26.314277506463657,0.0056459960191002
26.34300488365412,0.0056250792048989
26.371732260844585,0.0052406864760533
26.400459638035045,0.0057790776645733
26.42918701522551,0.0057081981137492
26.457914392415972,0.0050846236617418
26.486641769606432,0.0058456396505648
26.515369146796896,0.006005768730569
26.544096523987356,0.0056954029033855
26.57282390117782,0.0056949572452719
26.601551278368284,0.0059783009401559
26.630278655558744,0.0057489293788682
26.659006032749208,0.0052982614079137
26.68773340993967,0.0057357404179075
26.71646078713013,0.0050166423951792
26.745188164320595,0.005123401287786
26.77391554151106,0.0051348487249259
26.80264291870152,0.004899203579771
26.831370295891983,0.0048838523230239
26.860097673082446,0.0050426273231406
26.888825050272903,0.0050210204634635
26.91755242746337,0.0047448178649146
26.94627980465383,0.0048822210439487
26.975007181844298,0.0048354078989615
27.00373455903476,0.0047603121218197
27.03246193622522,0.0047684173148326
27.06118931341568,0.004819617979148
27.089916690606145,0.0048016357230508
27.11864406779661,0.0048482976894104
27.14737144498707,0.0048457278634022
27.176098822177533,0.0047833258619881
27.204826199367997,0.0048073979297718
27.233553576558457,0.004943589322536
27.26228095374892,0.0047835802399075
27.291008330939384,0.0047321695627282
27.319735708129844,0.0049283371797549
27.348463085320308,0.0049562513293185
27.37719046251077,0.0048845091237697
27.40591783970123,0.004969290168829
27.434645216891695,0.0049302526968873
27.46337259408216,0.0046860447802161
27.49209997127262,0.0048912704364123
27.520827348463083,0.0046911787545731
27.549554725653547,0.0045600223154403
27.578282102844007,0.0046856228684948
27.60700948003447,0.0047915341577004
27.635736857224934,0.0047088489685371
27.66446423441539,0.0047080505900541
27.693191611605855,0.0050071579327623
27.72191898879632,0.0043016755544893
27.750646365986785,0.0045199158145213
27.77937374317725,0.0046376462236485
27.80810112036771,0.0043830948357333
27.83682849755817,0.0044563928285779
27.865555874748633,0.0045192125763274
27.894283251939097,0.0044789477491681
27.923010629129557,0.0043889628777112
27.95173800632002,0.00469708555266
27.980465383510484,0.0049344807662225
28.009192760700945,0.0043687914933542
28.03792013789141,0.0048069068496289
28.066647515081872,0.0047804114382141
28.095374892272332,0.0048046794255741
28.124102269462796,0.004933787039336
28.15282964665326,0.0049487436868073
28.18155702384372,0.0048610484018968
28.210284401034183,0.004777584217388
28.239011778224647,0.0048386868741391
28.267739155415107,0.0048574153168603
28.29646653260557,0.004689162700609
28.325193909796035,0.0048513308381574
28.353921286986495,0.0048008077881049
28.38264866417696,0.0045593886458688
28.411376041367426,0.0047329120196541
28.44010341855788,0.0046734524168633
28.468830795748342,0.0045815148851268
28.49755817293881,0.0046844155903205
28.52628555012927,0.0045985009184906
28.555012927319737,0.0046773182770488
28.583740304510197,0.0046444725913937
28.612467681700657,0.0089765517347195
28.64119505889112,0.0025736996138954
28.669922436081585,0.0037716018353976
28.698649813272045,0.0565769368996405
28.72737719046251,0.0492326353869672
28.756104567652972,0.0512251783067841
28.784831944843432,0.0505447639611576
28.813559322033896,0.050620553825958
28.84228669922436,0.0550048410768926
28.87101407641482,0.0481953129996983
28.899741453605284,0.0228687370782339
28.928468830795747,0.0077033880551074
28.957196207986208,0.0053632932995222
28.98592358517667,0.0052236699869372
29.014650962367135,0.0051147234751974
29.043378339557595,0.0048991026561901
29.07210571674806,0.004882337352887
29.10083309393852,0.0048413468052622
29.129560471128983,0.0048099628511083
29.158287848319446,0.0047904333561112
29.18701522550991,0.0049197448178574
29.21574260270037,0.0049511339028928
29.24446997989083,0.0048867975838463
29.273197357081298,0.0048443496892976
29.30192473427176,0.0047989727976417
29.33065211146222,0.0048046957131043
29.359379488652685,0.0046151824881889
29.388106865843145,0.0046183537343428
29.41683424303361,0.0046443541758362
29.445561620224073,0.0046471011048641
29.474288997414533,0.0046971712211978
29.503016374604996,0.0047058350063363
29.53174375179546,0.0047082583520481
29.56047112898592,0.0047886096208245
29.589198506176384,0.0047988403790899
29.617925883366848,0.0049286222707187
29.646653260557308,0.0049180621645355
29.67538063774777,0.0047509030382828
29.704108014938235,0.0049472809695053
29.732835392128695,0.0050002506677956
29.76156276931916,0.0048675059669802
29.790290146509623,0.0051903988081045
29.819017523700083,0.0054093883886746
29.847744900890547,0.0049142951709614
29.87647227808101,0.0049746361135729
29.90519965527147,0.0049336398643294
29.933927032461938,0.0048499150754599
29.9626544096524,0.0048312031764527
29.991381786842854,0.004744609184954
30.02010916403332,0.0045726523890285
30.048836541223785,0.0044603750002672
30.07756391841425,0.0046130155002062
30.10629129560471,0.0044858533791753
30.135018672795173,0.0045218101850637
30.163746049985633,0.0045602664675381
30.192473427176097,0.004609282693443
30.22120080436656,0.0045768508948176
30.24992818155702,0.0046191829675236
30.278655558747484,0.0047266495462926
30.307382935937948,0.0046923224039655
30.336110313128408,0.0046644236382972
30.364837690318872,0.0046498644114419
30.393565067509336,0.0046619599309401
30.422292444699796,0.0047269402293059
30.45101982189026,0.0048330009455801
30.479747199080723,0.0049017547503632
30.508474576271183,0.0048783287529139
30.537201953461647,0.0047868362656422
30.56592933065211,0.004752939373812
30.59465670784257,0.004786206549028
30.623384085033035,0.0047246792892143
30.6521114622235,0.0046450812709135
30.68083883941396,0.004691479570953
30.709566216604426,0.0046137809305277
30.73829359379489,0.0045720859581167
30.767020970985342,0.0046706983011508
30.79574834817581,0.0047428424935409
30.824475725366273,0.0047353805477308
30.853203102556733,0.0047376025615006
30.881930479747197,0.0047073529815692
30.91065785693766,0.004651005838789
30.93938523412812,0.0049095741979416
30.968112611318585,0.0046900212767906
30.99683998850905,0.0044160802065189
31.02556736569951,0.0046213155305946
31.054294742889972,0.0045563563900825
31.083022120080436,0.0045578758368485
31.111749497270896,0.0046662237473749
31.14047687446136,0.0046534686195596
31.169204251651824,0.0048416434598253
31.197931628842284,0.0049272151542616
31.226659006032747,0.0048239676016466
31.25538638322321,0.004970691569453
31.28411376041367,0.0050838085127118
31.312841137604135,0.0050579066505234
31.3415685147946,0.0050633550721533
31.37029589198506,0.0051968533910959
31.39902326917552,0.0051903941350821
31.427750646365983,0.0050478125008687
31.456478023556446,0.0048989609095088
31.48520540074691,0.0048279802200314
31.513932777937377,0.0047880715241262
31.54266015512783,0.0048323699068853
31.571387532318298,0.0048764145264433
31.60011490950876,0.0047743534342392
31.62884228669922,0.0045937001898873
31.657569663889685,0.0046343302874757
31.68629704108015,0.0048217626552428
31.71502441827061,0.0046686269278534
31.743751795461073,0.0046075962997665
31.772479172651536,0.0048302189099625
31.801206549841996,0.0047428717567814
31.82993392703246,0.0046173116646615
31.858661304222924,0.0051797674303261
31.887388681413384,0.0050966122288208
31.916116058603848,0.0048704846903232
31.94484343579431,0.0048901392608294
31.97357081298477,0.0050353622706949
32.00229819017523,0.0047952140358309
32.031025567365695,0.0047503675558192
32.05975294455616,0.0049564477612701
32.08848032174662,0.0047584045776533
32.11720769893709,0.0047152363790548
32.14593507612755,0.0047115764570372
32.17466245331801,0.0047930413969466
32.20338983050847,0.0047849305370033
32.232117207698934,0.0047048665594591
32.2608445848894,0.0046403379688544
32.28957196207986,0.0048666720562812
32.318299339270325,0.0045826571710012
32.34702671646078,0.0046268840110418
32.375754093651246,0.00466133814304
32.40448147084171,0.0046095155893067
32.43320884803217,0.00471338041999
32.46193622522264,0.0046644574129637
32.4906636024131,0.0047550813665437
32.51939097960356,0.0046958612874919
32.54811835679402,0.0055697665567401
32.576845733984484,0.0036116484958082
32.60557311117495,0.0079600888036615
32.63430048836541,0.0604905995734561
32.663027865555875,0.0574210582954867
32.69175524274633,0.0575186218093931
32.720482619936796,0.0572172623076248
32.74920999712726,0.0578419339214864
32.77793737431772,0.0524828587498675
32.80666475150819,0.061899044599549
32.83539212869865,0.0525336721852887
32.86411950588911,0.0308871026802979
32.89284688307957,0.0078217636393465
32.921574260270035,0.0040521696507584
32.9503016374605,0.0065331072569773
32.97902901465096,0.0059257158845189
33.007756391841426,0.0053752589699556
33.03648376903188,0.0052794001913501
33.065211146222346,0.0051618806754212
33.09393852341281,0.0052173860394407
33.12266590060327,0.0051547349033541
33.15139327779374,0.0048473924544
33.1801206549842,0.0053851282888893
33.20884803217466,0.005072654428072
33.23757540936512,0.004841801407008
33.266302786555585,0.0049476595872018
33.29503016374605,0.0049495066850246
33.32375754093651,0.0049027182449669
33.352484918126976,0.0048295057932038
33.38121229531743,0.0046791380058801
33.409939672507896,0.0044361669416275
33.43866704969836,0.0044950391242262
33.46739442688882,0.0047243314975233
33.49612180407929,0.0046656222516937
33.52484918126975,0.0047844087504095
33.55357655846021,0.0048314621622175
33.58230393565067,0.0049422122332638
33.611031312841135,0.0049752472805884
33.6397586900316,0.0050114115043307
33.66848606722206,0.0049957872096929
33.697213444412526,0.0048133029150752
33.72594082160298,0.0046437167471504
33.754668198793446,0.0046148728466264
33.78339557598391,0.0046516627334226
33.812122953174374,0.0046243572847485
33.84085033036484,0.0044474274973847
33.8695777075553,0.0043708472963373
33.89830508474576,0.0044011414195671
33.92703246193622,0.0042982386715742
33.955759839126685,0.0045962801692047
33.98448721631715,0.0047396893505852
34.01321459350761,0.0046663217670418
34.041941970698076,0.004745830330629
34.07066934788853,0.0047570169782968
34.099396725078996,0.0048117036350147
34.12812410226946,0.0048278261110063
34.156851479459924,0.0047294004754494
34.18557885665039,0.0047759816962958
34.21430623384085,0.0046354554402235
34.24303361103131,0.0047793399243998
34.27176098822177,0.0045230888390641
34.300488365412235,0.0044922056074968
34.3292157426027,0.0046211062841214
34.35794311979316,0.0045745255359349
34.386670496983626,0.0048166793550503
34.41539787417408,0.0042710001049051
34.44412525136455,0.0045741948962013
34.47285262855501,0.0049279703824599
34.501580005745474,0.0048279923111841
34.53030738293594,0.004742969308198
34.5590347601264,0.004840638808872
34.58776213731686,0.0049404877109515
34.61648951450732,0.0046511220046305
34.645216891697785,0.0049976090070892
34.67394426888825,0.0050893968779011
34.70267164607871,0.0037868898216636
34.73139902326918,0.0047910776188738
34.76012640045963,0.0047863415444439
34.7888537776501,0.0045231375815056
34.81758115484056,0.0047043506795274
34.846308532031024,0.0047761207275755
34.87503590922149,0.004840846119898
34.90376328641195,0.0049789595152621
34.93249066360241,0.0049938220611896
34.96121804079287,0.0049765558986663
34.989945417983336,0.0050163974421345
35.0186727951738,0.0049821590973502
35.04740017236426,0.0049347717965204
35.07612754955473,0.0049652394843456
35.10485492674518,0.0045742209929045
35.13358230393565,0.004815157817019
35.16230968112611,0.0052955673927018
35.191037058316574,0.004934206824498
35.21976443550704,0.0050792301283085
35.2484918126975,0.004962016147954
35.27721918988796,0.0050714326143522
35.30594656707842,0.0050460739083454
35.334673944268886,0.0052264771615637
35.36340132145935,0.0051631729349412
35.39212869864981,0.0049918632401293
35.42085607584027,0.0049056310341531
35.44958345303073,0.0049551559189473
35.4783108302212,0.004965920092548
35.50703820741166,0.0049620318613426
35.535765584602125,0.0049353122480675
35.56449296179259,0.0048928680038148
35.593220338983045,0.0048872162225501
35.62194771617351,0.0050396323553655
35.65067509336397,0.0046984327403796
35.679402470554436,0.0048803925775636
35.7081298477449,0.0049022306630691
35.73685722493536,0.0050257539444893
35.76558460212582,0.0049792951653033
35.794311979316284,0.0048212259894063
35.82303935650675,0.0048408138442509
35.85176673369721,0.0047926204695011
35.880494110887675,0.0047268761152061
35.90922148807814,0.0047237563597055
35.937948865268595,0.0045790885328369
35.96667624245906,0.0046007768264094
35.99540361964952,0.0049240326767818
36.024130996839986,0.0047749724931156
36.05285837403045,0.0049360434787869
36.08158575122091,0.0048654564282276
36.11031312841137,0.0048957630943669
36.139040505601834,0.0049575754431051
36.1677678827923,0.0050133952529115
36.19649525998276,0.0050072500737102
36.225222637173225,0.0048714367630974
36.25395001436369,0.0047676768683443
36.282677391554145,0.0047651647179401
36.31140476874461,0.0047354677680041
36.34013214593507,0.00464885606097
36.368859523125536,0.0045705081096787
36.397586900316,0.0046152504826272
36.426314277506464,0.0046956921122912
36.45504165469692,0.0044668437304108
36.483769031887384,0.0045781011898717
36.51249640907785,0.0047525151857178
36.54122378626831,0.0047612725478731
36.569951163458775,0.0047564643793487
36.59867854064924,0.0048155122559592
36.627405917839695,0.0048342764248071
36.65613329503016,0.0047557837227218
36.68486067222062,0.004765645002271
36.713588049411086,0.0067247494536677
36.74231542660155,0.0218414065849348
36.771042803792014,0.0447598799280731
36.79977018098247,0.0490272989717599
36.828497558172934,0.0479064542083464
36.8572249353634,0.0476977043146523
36.88595231255386,0.0477981522150381
36.914679689744325,0.0496997642531327
36.94340706693479,0.0496126427081231
36.972134444125246,0.0204636707930781
37.00086182131571,0.0060103044532384
37.02958919850617,0.005908256642321
37.05831657569664,0.0057712699506194
37.0870439528871,0.0056035774638212
37.11577133007757,0.0053306429812438
37.14449870726802,0.005421719239793
37.17322608445848,0.0053086361375937
37.20195346164895,0.005047850257983
37.23068083883941,0.0051258153856872
37.259408216029875,0.0050901271937515
37.28813559322034,0.0051865813798318
37.3168629704108,0.0050220884767359
37.34559034760126,0.0046700262193526
37.37431772479172,0.0048889519779676
37.40304510198219,0.0048776543693461
37.43177247917265,0.0047979827110487
37.460499856363114,0.0048467738845737
37.48922723355357,0.00501345628347
37.517954610744034,0.0051145516305363
37.5466819879345,0.0051307736976208
37.57540936512496,0.0050580655429346
37.604136742315426,0.0050239605910755
37.63286411950589,0.0050776742003404
37.661591496696346,0.0050573383768578
37.69031887388681,0.0049170164384873
37.71904625107727,0.0047549528618939
37.74777362826774,0.0047508570235557
37.7765010054582,0.004917041670652
37.805228382648664,0.0047858676785552
37.83395575983912,0.004756659166243
37.862683137029585,0.0046934920486987
37.89141051422005,0.0049452984997149
37.92013789141051,0.0048380062457366
37.948865268600976,0.0049949395150034
37.97759264579144,0.0048880639866028
38.006320022981896,0.0049115837516371
38.03504740017236,0.0049721933435067
38.06377477736282,0.0048805488588489
38.09250215455329,0.004962542105393
38.12122953174375,0.0046630052866964
38.149956908934215,0.0048322289442913
38.17868428612467,0.0048731444185846
38.207411663315135,0.0047833416024584
38.2361390405056,0.0047673301184905
38.26486641769606,0.0047380268338501
38.293593794886526,0.0047395624604134
38.32232117207699,0.0047859929770344
38.351048549267446,0.0047126234759806
38.37977592645791,0.0046963759697866
38.408503303648374,0.0046341724904813
38.43723068083884,0.0046491796044423
38.4659580580293,0.0046925742891517
38.494685435219765,0.0046992083185406
38.52341281241022,0.0047458968131522
38.552140189600685,0.0048672997275899
38.58086756679115,0.0048274249284942
38.60959494398161,0.004793876811712
38.63832232117208,0.00476797581369
38.66704969836254,0.0048168155806052
38.69577707555299,0.004817735185572
38.72450445274346,0.0047936638728562
38.75323182993392,0.0047777912569501
38.78195920712439,0.0047625380926593
38.81068658431485,0.0046856971619193
38.839413961505315,0.0046965408336094
38.86814133869577,0.0047624828545634
38.896868715886235,0.0046800103678959
38.9255960930767,0.0047377546283463
38.95432347026716,0.0046388418081653
38.983050847457626,0.0046101793801418
39.01177822464809,0.0046140771257978
39.04050560183855,0.0046310129866015
39.06923297902901,0.0048351462494311
39.097960356219474,0.0047170417071256
39.12668773340994,0.0047443405291876
39.1554151106004,0.0049180304043243
39.184142487790865,0.0047906442638932
39.21286986498132,0.0048575414277805
39.241597242171785,0.0048863453015988
39.27032461936225,0.0047975653837672
39.29905199655271,0.0048254604358808
39.32777937374318,0.0048592411076523
39.35650675093364,0.0047254631480239
39.3852341281241,0.0048231917787424
39.41396150531456,0.0049063078623539
39.442688882505024,0.0048165865205242
39.47141625969549,0.004956668457708
39.50014363688595,0.0048891322032397
39.528871014076415,0.0048130777512576
39.55759839126687,0.0047375047605908
39.586325768457336,0.0048559201680738
39.6150531456478,0.0050638607634821
39.64378052283826,0.0046867071720717
39.67250790002873,0.0045986794348349
39.70123527721919,0.0047681046956425
39.72996265440965,0.0047917589917241
39.75869003160011,0.0047819165669957
39.787417408790574,0.0047362639773229
39.81614478598104,0.0046749025172905
39.8448721631715,0.00478967621288
39.873599540361965,0.0048743214887799
39.90232691755242,0.004834213949948
39.931054294742886,0.0047659323762817
39.95978167193335,0.0047727358412463
39.98850904912381,0.0048045235832511
40.01723642631428,0.0048058970564305
40.04596380350474,0.0047844924997683
40.0746911806952,0.0048021672260412
40.10341855788566,0.0048210662742023
40.132145935076124,0.0047279915845833
40.16087331226659,0.0047633890050915
40.18960068945705,0.0046928350937178
40.21832806664752,0.0046985457699981
40.24705544383797,0.0046476183207273
40.27578282102843,0.0046446468470707
40.3045101982189,0.0047168622399514
40.33323757540936,0.0047491280355877
40.36196495259983,0.0046802718506807
40.39069232979029,0.0046426649011571
40.41941970698075,0.0045561377097816
40.44814708417121,0.004600330087775
40.476874461361675,0.0046206895626189
40.50560183855214,0.0044362882407521
40.5343292157426,0.0046095458956652
40.563056592933066,0.0046576120680499
40.59178397012352,0.0045777442151638
40.620511347313986,0.0046441102565603
40.64923872450445,0.0049417615132351
40.67796610169491,0.0040001946144634
40.70669347888538,0.0038455622680541
40.73542085607584,0.029549808750119172
40.7641482332663,0.03168612223655692
40.79287561045676,0.0722970970012048
40.821602987647225,0.0605281148672007
40.85033036483769,0.0595726786824694
40.87905774202815,0.0586697821948486
40.907785119218616,0.0582196543721516
40.93651249640907,0.0460322349277753
40.965239873599536,0.03286385695047638
40.99396725079,0.02108201120999308
41.022694627980464,0.022378696009385527
41.05142200517093,0.0181322397917829
41.08014938236139,0.0107272632099538
41.10887675955185,0.0054345699663317
41.13760413674231,0.0053315860668935
41.166331513932775,0.0044696574651114
41.19505889112324,0.005113852941665
41.2237862683137,0.0049676338027391
41.25251364550416,0.0049264019255795
41.28124102269462,0.0048577700637074
41.309968399885086,0.0048374174007616
41.33869577707555,0.0050973862986342
41.367423154266014,0.0050325041841789
41.39615053145648,0.0049153157358859
41.424877908646934,0.0049378071628571
41.4536052858374,0.0049301664357694
41.48233266302786,0.0048783869323322
41.511060040218325,0.0049450167705417
41.53978741740879,0.0048523465157098
41.56851479459925,0.0047623077476757
41.59724217178971,0.0047221652706455
41.62596954898017,0.0047149081971183
41.65469692617064,0.0047828461775416
41.6834243033611,0.0049355657390271
41.71215168055157,0.0049776204105994
41.74087905774203,0.0049241835080048
41.76960643493248,0.0048497603452279
41.79833381212295,0.0048320563667241
41.82706118931341,0.0049051444661636
41.855788566503875,0.0049956604808743
41.88451594369434,0.0049072984317266
41.9132433208848,0.0045334155549325
41.94197069807526,0.0049296583555122
41.97069807526572,0.0048947097532666
41.99942545245619,0.0043906956665941
42.02815282964665,0.00484865524906
42.056880206837114,0.0048045555151136
42.08560758402758,0.0048267843978089
42.114334961218034,0.0048255105237578
42.1430623384085,0.0049132224037848
42.17178971559896,0.0049229716622519
42.200517092789426,0.0048046414936927
42.22924446997989,0.0047718292130563
42.25797184717035,0.0047082786756624
42.28669922436081,0.004727504754544
42.31542660155127,0.0047990895547478
42.34415397874174,0.0048289003868574
42.3728813559322,0.0047699011415468
42.401608733122664,0.0048079088221087
42.43033611031313,0.0049125066447904
42.459063487503585,0.004827758613638
42.48779086469405,0.0048445995502789
42.51651824188451,0.0048791733060337
42.545245619074976,0.004857837133246
42.57397299626544,0.0047262604065553
42.6027003734559,0.0044723920100846
42.63142775064636,0.0044603862972222
42.66015512783682,0.0044952099857811
42.68888250502729,0.0046144541660458
42.71760988221775,0.004765146628831
42.746337259408214,0.0045237272520269
42.77506463659868,0.0046239510769821
42.803792013789135,0.0046664357912577
42.8325193909796,0.0047115309946361
42.86124676817006,0.0047071067619354
42.889974145360526,0.0046771998558972
42.91870152255099,0.0047323054007973
42.94742889974145,0.0047130762203298
42.97615627693191,0.0046482507735599
43.004883654122374,0.0045751685027816
43.03361103131284,0.0045709337545297
43.0623384085033,0.0046875981992531
43.091065785693765,0.0048328210567258
43.11979316288423,0.0048267859306433
43.148520540074685,0.0048493519446697
43.17724791726515,0.0048685536103162
43.20597529445561,0.0048523508212773
43.23470267164608,0.0048629789840415
43.26343004883654,0.0047629920654875
43.292157426027,0.0048587351801627
43.32088480321746,0.0054625086917497
43.34961218040792,0.0026297005240485
43.37833955759839,0.0056696005957217
43.40706693478885,0.0055160074939253
43.435794311979315,0.0050514283589313
43.46452168916978,0.0048664698600471
43.493249066360235,0.0048763963459343
43.5219764435507,0.0049543676959198
43.55070382074116,0.0048197335373522
43.579431197931626,0.0051637962996221
43.60815857512209,0.0050088393449692
43.636885952312554,0.0048585680549716
43.66561332950301,0.0048809983788066
43.694340706693474,0.0049378377215981
43.72306808388394,0.0048952424374612
43.7517954610744,0.0048170209674833
43.780522838264865,0.0049308133783288
43.80925021545533,0.0050349340715868
43.837977592645785,0.0050213842410641
43.86670496983625,0.0050189965970898
43.89543234702671,0.0050316704992824
43.924159724217176,0.0050859993526869
43.95288710140764,0.0050724671100381
43.981614478598104,0.0049405044217556
44.01034185578856,0.0049056913911731
44.039069232979024,0.0048500199915673
44.06779661016949,0.0047438775140145
44.09652398735995,0.0047267380608197
44.125251364550415,0.0046992389410412
44.15397874174088,0.004645203637648
44.182706118931335,0.0046541803818985
44.2114334961218,0.0046508989684532
44.24016087331226,0.0047258492552532
44.26888825050273,0.0046014663201481
44.29761562769319,0.0044820764384954
44.326343004883654,0.004723406261851
44.35507038207411,0.0048022041075061
44.383797759264574,0.0046768937347214
44.41252513645504,0.004747671965883
44.4412525136455,0.0046798964067496
44.469979890835965,0.0049551290267282
44.49870726802643,0.0049976947361732
44.527434645216886,0.004518565879528
44.55616202240735,0.0054840318350665
44.58488939959781,0.0053669746380399
44.61361677678828,0.0049572641846786
44.64234415397874,0.0050482205076521
44.6710715311692,0.0050837420687044
44.69979890835966,0.0049037522255709
44.72852628555013,0.0049337615892254
44.75725366274059,0.01665031930282768
44.78598103993105,0.0218512552173539
44.81470841712152,0.0216740708679384
44.84343579431198,0.0414553338481731
44.87216317150243,0.0543486236255754
44.9008905486929,0.0560040078477813
44.92961792588336,0.0558629566683162
44.95834530307383,0.0559962246757838
44.98707268026429,0.058037758711909
45.015800057454754,0.0538170732897963
45.04452743464521,0.0448101856889036
45.073254811835675,0.0391109576367306
45.10198218902614,0.0164605821074395
45.1307095662166,0.0085953895138301
45.159436943407066,0.0052940360835088
45.18816432059753,0.0054315201104984
45.216891697787986,0.0049598782847555
45.24561907497845,0.00504257170507
45.27434645216891,0.0051931253307029
45.30307382935938,0.005102034934741
45.33180120654984,0.005049793286123
45.360528583740304,0.0050096254794844
45.38925596093076,0.0050441716265567
45.417983338121225,0.0051186463936064
45.44671071531169,0.0050479088663596
45.47543809250215,0.0051370491906531
45.504165469692616,0.0050631682799812
45.53289284688308,0.0049853835742517
45.561620224073536,0.005030060791709
45.590347601264,0.0050681874118018
45.619074978454464,0.0050725652694186
45.64780235564493,0.0050598150339603
45.67652973283539,0.0050144605416862
45.705257110025855,0.0049604807540748
45.73398448721631,0.0049394884881821
45.762711864406775,0.0048873881853108
45.79143924159724,0.0048332761927065
45.8201666187877,0.0049390502122678
45.848893995978166,0.0047111098941041
45.87762137316863,0.0046520064881701
45.906348750359086,0.0046280747696289
45.93507612754955,0.00476348374479
45.963803504740014,0.0058448048938111
45.99253088193048,0.0051918540905707
46.02125825912094,0.0052077090958136
46.049985636311405,0.005182420227323
46.07871301350186,0.0052070057576065
46.107440390692325,0.0052148574945238
46.13616776788279,0.0052954351634812
46.16489514507325,0.005291789064708
46.19362252226371,0.0048855893135971
46.22234989945418,0.0048699676834411
46.25107727664464,0.00492937518979
46.2798046538351,0.0049419690944215
46.30853203102557,0.0047978964496786
46.33725940821603,0.0048614550399096
46.36598678540649,0.0050461049965129
46.394714162596955,0.0050303979784556
46.42344153978741,0.0049036221642451
46.452168916977875,0.0049449654488959
46.48089629416834,0.0048356565971174
46.5096236713588,0.0049670215986762
46.538351048549266,0.0048318387558289
46.56707842573973,0.0046467565510166
46.59580580293019,0.0046250424966663
46.62453318012065,0.0047282396914719
46.653260557311114,0.0050854144375992
46.68198793450158,0.004409233688079
46.71071531169204,0.0046633845034998
46.739442688882505,0.0047966091698917
46.76817006607296,0.0048063114765815
46.796897443263425,0.0048846526829586
46.82562482045389,0.004795940532465
46.85435219764435,0.0048563648361801
46.88307957483482,0.0049084402699592
46.91180695202528,0.0048436540840273
46.94053432921574,0.0048506156753678
46.9692617064062,0.0046505742225672
46.997989083596664,0.0052201069057145
47.02671646078713,0.0052860563457012
47.05544383797759,0.0049687033571254
47.08417121516805,0.0066663961142495
47.11289859235851,0.0033385346709248
47.141625969548976,0.0047034166773754
47.17035334673944,0.0047384299167916
47.1990807239299,0.0048831084656924
47.22780810112037,0.0050457043962423
47.25653547831082,0.0047268104871222
47.28526285550129,0.0046990321777861
47.31399023269175,0.0046736285768732
47.342717609882214,0.0047152017018993
47.37144498707268,0.0047052494923209
47.40017236426314,0.0044248432063265
47.4288997414536,0.0048419374481384
47.45762711864406,0.0048637778438399
47.486354495834526,0.0045517776249008
47.51508187302499,0.0043359293707616
47.54380925021545,0.0050997033988262
47.57253662740592,0.0047342985027124
47.60126400459637,0.0046424589930759
47.62999138178684,0.0046789510738176
47.6587187589773,0.0047921268694928
47.687446136167765,0.0049340239216981
47.71617351335823,0.005000934887116
47.74490089054869,0.0048318995875226
47.77362826773915,0.0048756637107932
47.80235564492961,0.0051529601167455
47.83108302212008,0.0050283495338434
47.85981039931054,0.004998813629861
47.888537776501,0.0049958475451108
47.91726515369147,0.0049853548081864
47.94599253088192,0.0049200282930098
47.97471990807239,0.0048475010880416
48.00344728526285,0.0048191433836367
48.032174662453315,0.0048421274302101
48.06090203964378,0.004899860402764
48.08962941683424,0.0049359440552457
48.1183567940247,0.0047641394613055
48.14708417121516,0.004861952991001
48.175811548405626,0.0047325306799711
48.20453892559609,0.0048889690403157
48.233266302786554,0.0049723349771106
48.26199367997702,0.0047217574596815
48.290721057167474,0.0048673980356567
48.31944843435794,0.0048676213324718
48.3481758115484,0.004862992694486
48.376903188738865,0.004850237523999
48.40563056592933,0.0047834801497394
48.43435794311979,0.004829477304676
48.46308532031025,0.0048145237382536
48.49181269750071,0.004779344055839
48.520540074691176,0.0047875842918628
48.54926745188164,0.004788590343563
48.577994829072104,0.0050601687758341
48.60672220626257,0.005061772979149
48.635449583453024,0.0047768384057656
48.66417696064349,0.0047937671216596
48.69290433783395,0.0037273140448564
48.721631715024415,0.0100403877601156
48.75035909221488,0.0240027833108646
48.77908646940534,0.039229946946107
48.8078138465958,0.0608967412024917
48.83654122378626,0.064419324678309
48.86526860097673,0.0591568424868634
48.89399597816719,0.0602587367840729
48.922723355357654,0.0601033587823034
48.95145073254812,0.0624109833044517
48.980178109738574,0.0588208407377575
49.00890548692904,0.0265259996950054
49.0376328641195,0.0076980220432614
49.066360241309965,0.0102539397801284
49.09508761850043,0.0036587007978875
49.12381499569089,0.0070060418260876
49.15254237288135,0.0077331660684568
49.18126975007181,0.0069232640430132
49.20999712726228,0.0052251258220629
49.23872450445274,0.0055960048628886
49.2674518816432,0.0055724029849685
49.29617925883367,0.0057313769069253
49.32490663602413,0.0058482878780726
49.35363401321459,0.0054798901541938
49.38236139040505,0.0050994565125455
49.411088767595515,0.0055358429624517
49.43981614478598,0.0048092410073779
49.46854352197644,0.0050647214091581
49.4972708991669,0.0049786565239028
49.52599827635736,0.0052005025669866
49.55472565354783,0.0053255026392588
49.58345303073829,0.0051109085248555
49.612180407928754,0.0050390284077021
49.64090778511922,0.0051123743204132
49.669635162309675,0.0051518000605104
49.69836253950014,0.005204778722611
49.7270899166906,0.0051818557153771
49.755817293881066,0.0051345402046664
49.78454467107153,0.0051542830915565
49.81327204826199,0.0051257277880948
49.84199942545245,0.0050510236806988
49.87072680264291,0.0049788576813565
49.89945417983338,0.0050792023315697
49.92818155702384,0.0051182462569501
49.956908934214304,0.0048776889449815
49.98563631140477,0.0051834453661153
50.014363688595225,0.005243766018181
50.04309106578569,0.0050378364605447
50.07181844297615,0.0049477030223197
50.100545820166616,0.0049912345093746
50.12927319735708,0.0050524783328418
50.15800057454754,0.0048786352546238
50.186727951738,0.0049553074874697
50.21545532892846,0.0052697967518277
50.24418270611893,0.0051989949480744
50.27291008330939,0.0049811716398777
50.301637460499855,0.005115984056538
50.33036483769032,0.0052012826825236
50.359092214880775,0.0050695445353811
50.38781959207124,0.005070271919908
50.4165469692617,0.0050885975920904
50.445274346452166,0.0050035645448709
50.47400172364263,0.0049412587089179
50.50272910083309,0.0049546148328569
50.53145647802355,0.0049466728184131
50.560183855214014,0.0047770021842353
50.58891123240448,0.0048080404534566
50.61763860959494,0.0049527695526216
50.646365986785405,0.0047574603350702
50.67509336397587,0.0046617944784401
50.703820741166325,0.0049262545008139
50.73254811835679,0.0047795539171772
50.76127549554725,0.0048063906707589
50.79000287273771,0.0048693649049981
50.81873024992818,0.0048708880624819
50.84745762711864,0.0047798315654303
50.8761850043091,0.0050056783349305
50.90491238149957,0.0053278889313196
50.93363975869003,0.0042831758200181
50.96236713588049,0.0048191036716418
50.991094513070955,0.0049442178953348
51.01982189026142,0.0046623852308098
51.048549267451875,0.0044043763791221
51.07727664464234,0.0051507021673556
51.1060040218328,0.004910095231395
51.134731399023266,0.0048468242824257
51.16345877621373,0.0047608880677315
51.192186153404194,0.0047994371780647
51.22091353059465,0.0047892334872241
51.249640907785114,0.0050215801228759
51.27836828497558,0.0052068343564878
51.30709566216604,0.0049228214198563
51.335823039356505,0.0050213776415229
51.36455041654697,0.0049693264303473
51.393277793737425,0.0050981433577584
51.42200517092789,0.0047511528825046
51.45073254811835,0.0045016426208456
51.47945992530882,0.0051931055601162
51.50818730249928,0.0047609981441199
51.536914679689744,0.0045989514814582
51.5656420568802,0.0048687665128114
51.594369434070664,0.0047710751612315
51.62309681126113,0.0048494694993942
51.65182418845159,0.0049264014976342
51.680551565642055,0.0048758727971031
51.70927894283252,0.0047089220223424
51.738006320022976,0.0047327434481077
51.76673369721344,0.0048817037948668
51.7954610744039,0.0048870824899684
51.82418845159437,0.0047529030346289
51.85291582878483,0.0049916279986841
51.881643205975294,0.0049329404221848
51.91037058316575,0.0047332385319327
51.939097960356214,0.0047187353702683
51.96782533754668,0.0048275627103591
51.99655271473714,0.0048388954616761
52.025280091927605,0.0046551204161218
52.05400746911807,0.0046827659629233
52.082734846308526,0.0047832492784349
52.11146222349899,0.0047198716447863
52.14018960068945,0.0048425844488534
52.16891697787992,0.0049355143579989
52.19764435507038,0.00489996599401
52.22637173226085,0.0048575804588371
52.2550991094513,0.0048293309942994
52.283826486641765,0.0047075652831084
52.31255386383223,0.0045898718375279
52.34128124102269,0.0045683284528386
52.37000861821315,0.0046786393671336
52.39873599540362,0.0046984897672953
52.42746337259408,0.0043683053461822
52.45619074978454,0.0048851832426505
52.484918126975,0.0046710691430077
52.51364550416547,0.0046284845197672
52.54237288135593,0.004811777277286
52.571100258546394,0.004860094143001
52.59982763573685,0.0047310156891653
52.628555012927315,0.004904598246616
52.65728239011778,0.0049040217711573
52.68600976730824,0.0048225625088274
52.714737144498706,0.0046398747307141
52.74346452168917,0.0035206433117862
52.772191898879626,0.0101795954346157
52.80091927607009,0.0131213091856417
52.82964665326055,0.0174865315750816
52.85837403045102,0.0623325359945499
52.88710140764148,0.0461869738445245
52.915828784831945,0.0392391630453559
52.9445561620224,0.0447793348048985
52.973283539212865,0.0448692113331045
53.00201091640333,0.043100170287007
53.03073829359379,0.0438554170166128
53.059465670784256,0.0508982120666131
53.08819304797471,0.0134825746514485
53.116920425165176,0.0061940094887096
53.14564780235564,0.0053930662521466
53.174375179546104,0.0048090884767445
53.20310255673657,0.0047022359381721
53.23182993392703,0.0050848819580702
53.26055731111749,0.0045537804545038
53.28928468830795,0.0046366650613409
53.318012065498415,0.0050075772379033
53.34673944268888,0.0048737273993103
53.37546681987934,0.0045809246907656
53.404194197069806,0.0055159772352732
53.43292157426026,0.005122929063885
53.46164895145073,0.0049691208579361
53.49037632864119,0.0049346150255486
53.519103705831654,0.0050651810614067
53.54783108302212,0.004967810128636
53.57655846021258,0.0049279641948356
53.60528583740304,0.0053061778165814
53.6340132145935,0.0054845217443651
53.662740591783965,0.0043339633173176
53.69146796897443,0.0050372536394717
53.72019534616489,0.0051390810848577
53.74892272335536,0.0052774258485853
53.77765010054581,0.0053778150934121
53.80637747773628,0.0047050452656547
53.83510485492674,0.0065243068191048
53.8638322321172,0.0052927460660089
53.89255960930767,0.0051232478914385
53.92128698649813,0.0054528902142241
53.95001436368859,0.0051533211270289
53.97874174087905,0.0047345162012055
54.007469118069515,0.0048039994015229
54.03619649525998,0.0048359654126375
54.06492387245044,0.0037034978826158
54.09365124964091,0.005294251717756
54.12237862683136,0.0059268612730334
54.15110600402183,0.0048469348857264
54.17983338121229,0.0050213262742009
54.208560758402754,0.0048244078079424
54.23728813559322,0.0048721250128653
54.26601551278368,0.0049438825746563
54.29474288997414,0.0050445570438526
54.3234702671646,0.0051529835720565
54.352197644355066,0.0051707571450062
54.38092502154553,0.0049321585341478
54.40965239873599,0.0048177736306605
54.43837977592646,0.0054808600988441
54.46710715311691,0.0052206435021975
54.49583453030738,0.0052448597282174
54.52456190749784,0.0052086655134845
54.553289284688304,0.0052041137187437
54.58201666187877,0.0050569915685235
54.61074403906923,0.0051508288903267
54.63947141625969,0.005398422770732
54.66819879345015,0.0049696918749556
54.696926170640616,0.0050295372471497
54.72565354783108,0.0049620021409178
54.75438092502154,0.0050533057693938
54.78310830221201,0.005420389537148
54.81183567940246,0.0051184147130389
54.84056305659293,0.0051893238000927
54.86929043378339,0.0054473610735733
54.898017810973855,0.005201293646593
54.92674518816432,0.0051698366472157
54.95547256535478,0.0051883696232198
54.98419994254524,0.0050503262047876
55.0129273197357,0.004968916360846
55.041654696926166,0.0049151244320019
55.07038207411663,0.0048391732685439
55.09910945130709,0.0048777466908794
55.12783682849756,0.0049047361607581
55.156564205688014,0.0047145099967743
55.18529158287848,0.0048894723347172
55.21401896006894,0.0049845604388825
55.242746337259405,0.004958610171583
55.27147371444987,0.0051047161906029
55.30020109164033,0.0051093377204804
55.32892846883079,0.0050780489801752
55.35765584602125,0.0051535125666868
55.38638322321171,0.0051463748221746
55.41511060040218,0.005174950102262
55.44383797759264,0.0052583530681299
55.47256535478311,0.0053734241095785
55.50129273197357,0.0053187685453862
55.53002010916403,0.0051058401338889
55.55874748635449,0.0055792911701128
55.587474863544955,0.0053935647508101
55.61620224073542,0.0052931074753596
55.64492961792588,0.0054579775803209
55.67365699511634,0.0051849345395375
55.7023843723068,0.0052034099824002
55.731111749497266,0.005098426306853
55.75983912668773,0.004982735633383
55.788566503878194,0.004861014078917
55.81729388106866,0.0048087879416664
55.846021258259114,0.0048342759742055
55.87474863544958,0.0048396498271954
55.90347601264004,0.0048167693392943
55.932203389830505,0.0047309387151004
55.96093076702097,0.0047891747082236
55.98965814421143,0.0048702896703874
56.01838552140189,0.0048793120878684
56.04711289859235,0.0048637803074605
56.07584027578282,0.0049636477726138
56.10456765297328,0.0050788562166234
56.133295030163744,0.0047651588188803
56.16202240735421,0.0048994288397597
56.190749784544664,0.0049682187514624
56.21947716173513,0.0047390881833544
56.24820453892559,0.0047951344340394
56.276931916116055,0.0048928686584135
56.30565929330652,0.0048644111249904
56.33438667049698,0.0050167506242889
56.36311404768744,0.0047040662677339
56.3918414248779,0.0047426047502078
56.42056880206837,0.0046549417125286
56.44929617925883,0.0047226119026175
56.478023556449294,0.0048492847059995
56.50675093363976,0.0048422024422059
56.535478310830214,0.0047930824805817
56.56420568802068,0.0049618982060191
56.59293306521114,0.0052205682814459
56.621660442401605,0.0051252125219311
56.65038781959207,0.0051743897027558
56.67911519678253,0.0051924208015751
56.70784257397299,0.0050960738630595
56.73656995116345,0.0050992220965069
56.76529732835392,0.0050449007154592
56.79402470554438,0.0050109881300001
56.82275208273485,0.0048782462487737
56.85147945992531,0.0050183075840773
56.880206837115765,0.006290997224414
56.90893421430623,0.0100853066183535
56.93766159149669,0.0275466700055925
56.96638896868715,0.0616593716634434
56.99511634587762,0.0510023767788367
57.02384372306808,0.0477451974621353
57.05257110025854,0.0510604326370223
57.081298477449,0.0505429786934685
57.11002585463947,0.0517672647505599
57.13875323182993,0.0485631446038463
57.167480609020394,0.0274540167390067
57.19620798621086,0.0090556172646215
57.224935363401315,0.0074389563329655
57.25366274059178,0.0066368110801201
57.28239011778224,0.0065041693744313
57.311117494972706,0.0063015394206886
57.33984487216317,0.0055402026627595
57.36857224935363,0.0050138535791636
57.39729962654409,0.0052250196697972
57.42602700373455,0.0046501522848462
57.45475438092502,0.0049972071210159
57.48348175811548,0.0051527563935574
57.512209135305945,0.0047126559729804
57.54093651249641,0.0048559166589525
57.569663889686865,0.0052085396744085
57.59839126687733,0.0050844802488285
57.62711864406779,0.0048980483347955
57.655846021258256,0.005105139890158
57.68457339844872,0.0051957568843432
57.71330077563918,0.0051323693170878
57.74202815282964,0.0054265405924217
57.770755530020104,0.0049327523538122
57.79948290721057,0.0050421814947884
57.82821028440103,0.0051771215217435
57.856937661591495,0.0052453782992786
57.88566503878196,0.0053473860032536
57.914392415972415,0.0051027767107949
57.94311979316288,0.0051045622712582
57.97184717035334,0.0053992249627753
58.000574547543806,0.0051062738536512
58.02930192473427,0.0053883631683974
58.05802930192473,0.0047732698965971
58.08675667911519,0.0049251440312378
58.115484056305654,0.0049956936848827
58.14421143349612,0.0050572449837991
58.17293881068658,0.0053462676030619
58.201666187877045,0.0052713476057059
58.23039356506751,0.0054413165857129
58.259120942257965,0.0055199759291776
58.28784831944843,0.0054402205954512
58.31657569663889,0.0055291630076318
58.34530307382936,0.0055006680386702
58.37403045101982,0.0053498831300127
58.40275782821029,0.0054500717738472
58.43148520540074,0.0051063182262659
58.4602125825912,0.0051738561108442
58.48893995978167,0.0049031124553426
58.51766733697213,0.004956229983357
58.546394714162595,0.0049087147143533
58.57512209135306,0.0052084904536728
58.603849468543515,0.0051589872773504
58.63257684573398,0.0053608183300132
58.66130422292444,0.0051764610606991
58.69003160011491,0.0046580618553194
58.71875897730537,0.0056241329696537
58.747486354495834,0.0053900218225509
58.77621373168629,0.0051667583156795
58.804941108876754,0.0049512903509498
58.83366848606722,0.0050025892009518
58.86239586325768,0.0050553186423568
58.891123240448145,0.0049649977176957
58.9198506176386,0.0047700039380643
58.948577994829066,0.0048963755387779
58.97730537201953,0.0049753915853386
59.00603274920999,0.0048896249698508
59.03476012640046,0.0050881253157554
59.06348750359092,0.0052468858133653
59.09221488078138,0.0051319481760376
59.12094225797184,0.0053790668180134
59.149669635162304,0.0054290753699448
59.17839701235277,0.0052002079270936
59.20712438954323,0.0051447236877129
59.235851766733695,0.0053063865402085
59.26457914392415,0.0047991016335377
59.293306521114616,0.0040786420689906
59.32203389830508,0.0057700634477077
59.35076127549554,0.0049805063230824
59.37948865268601,0.0044945949806152
59.40821602987647,0.0049224368526964
59.43694340706693,0.0049177385668857
59.46567078425739,0.0051092141390582
59.494398161447855,0.0050090497190535
59.52312553863832,0.0048425967133481
59.55185291582878,0.0048989354915365
59.580580293019246,0.0048289379926471
59.6093076702097,0.0047017842417831
59.638035047400166,0.0046963271856899
59.66676242459063,0.0046500097822773
59.69548980178109,0.0045597626158801
59.72421717897156,0.0045201493025729
59.75294455616202,0.0045985439569515
59.78167193335248,0.0045336181184811
59.81039931054294,0.0046576242488067
59.839126687733405,0.0047566240049361
59.86785406492387,0.004943720162331
59.89658144211433,0.0048916762645889
59.9253088193048,0.0061106668117178
59.95403619649525,0.0040132296234212
59.98276357368571,0.0042105862233266
60.01149095087618,0.0052193694392056
60.04021832806664,0.0050156668306309
60.06894570525711,0.0047626079662188
60.09767308244757,0.0046743726184913
60.12640045963803,0.0046533951054722
60.15512783682849,0.0046202119608243
60.183855214018955,0.0047164734746723
60.21258259120942,0.0047095110082828
60.24130996839988,0.0046364830193997
60.270037345590346,0.0046934223199949
60.2987647227808,0.0047940899108117
60.327492099971266,0.0048072035392733
60.35621947716173,0.0047331815057793
60.384946854352194,0.0046277053240707
60.41367423154266,0.0050701758138073
60.44240160873312,0.0050328263090448
60.47112898592358,0.0047789491467302
60.49985636311404,0.0050731077501012
60.528583740304505,0.0049217444740362
60.55731111749497,0.0050333007003431
60.58603849468543,0.0049418935683596
60.614765871875896,0.0049119749954762
60.64349324906635,0.0048536824620243
60.672220626256816,0.0047071938659307
60.70094800344728,0.0045993408102389
60.729675380637744,0.0046266713106316
60.75840275782821,0.0046099445926412
60.78713013501867,0.0045516843127918
60.81585751220913,0.0044821920813628
60.84458488939959,0.0039741729195136
60.873312266590055,0.0061430245762887
60.90203964378052,0.005222887726929
60.93076702097098,0.013607510666449116
60.959494398161446,0.0077532592052011
60.9882217753519,0.0226054901399882
61.01694915254237,0.0359462294307741
61.04567652973283,0.0357562261932124
61.074403906923294,0.0358663010916733
61.10313128411376,0.0366494872193234
61.13185866130422,0.0365737091665809
61.16058603849468,0.0375941946972014
61.18931341568514,0.0389672362650516
61.218040792875605,0.0288941517099535
61.24676817006607,0.0240407139851026
61.27549554725653,0.0240339175680161
61.304222924447,3.996140442518154e-05
61.33295030163745,0.0060360949351223
61.36167767882792,0.0051855865457941
61.39040505601838,0.0055225265433617
61.41913243320885,0.0052328787743183
61.44785981039931,0.0054009677647466
61.47658718758977,0.0045603052614401
61.50531456478023,0.0049574515175442
61.53404194197069,0.0051330405476753
61.56276931916115,0.0051451002459682
61.59149669635162,0.0051938133887924
61.62022407354208,0.0051100431314159
61.64895145073255,0.0052988409712666
61.677678827923,0.0052170816551434
61.70640620511347,0.0053490751223514
61.73513358230393,0.0052694804428925
61.763860959494394,0.005303774765026
61.79258833668486,0.0054327030965921
61.82131571387532,0.0053864534013986
61.85004309106578,0.0053318124191777
61.87877046825624,0.0053308027240308
61.907497845446706,0.0052055015206668
61.93622522263717,0.0054581570393246
61.96495259982763,0.004644143629007
61.9936799770181,0.0046035993288994
62.02240735420855,0.0049582130991552
62.05113473139902,0.0047438717501705
62.07986210858948,0.0047535562503027
62.108589485779945,0.0049714676434272
62.13731686297041,0.0049519352245029
62.16604424016087,0.0049563526603773
62.19477161735133,0.0049345261957121
62.22349899454179,0.0047612595374942
62.252226371732256,0.0046896274243057
62.28095374892272,0.0047098852925838
62.30968112611318,0.0046695186652195
62.33840850330365,0.0046744318363845
62.367135880494104,0.0047097001779103
62.39586325768457,0.0047435410339946
62.42459063487503,0.0047238462209769
62.453318012065495,0.0046575690630351
62.48204538925596,0.0049152430308641
62.51077276644642,0.0047236773562889
62.53950014363688,0.0044439405874942
62.56822752082734,0.0046605561744374
62.596954898017806,0.0046639948130731
62.62568227520827,0.0046621226470701
62.65440965239873,0.0046614319234002
62.6831370295892,0.0046166178500647
62.711864406779654,0.0046850172974327
62.74059178397012,0.0048229270803429
62.76931916116058,0.0048818565157467
62.798046538351045,0.0048677434592796
62.82677391554151,0.0048369278111317
62.85550129273197,0.0048015560806424
62.88422866992243,0.0048041592038003
62.91295604711289,0.0047189476054763
62.94168342430336,0.004387095807742
62.97041080149382,0.0044747065942014
62.99913817868429,0.0045290792722871
63.02786555587475,0.0044762334198427
63.0565929330652,0.0044387598122586
63.08532031025567,0.004519976189856
63.11404768744613,0.0045111986148939
63.142775064636595,0.004602916261936
63.17150244182706,0.0045693962632733
63.20022981901752,0.0046119169732063
63.22895719620798,0.0046486264022805
63.25768457339844,0.004686742172161
63.28641195058891,0.0047509201396479
63.31513932777937,0.0048530455917731
63.343866704969834,0.0049920963901193
63.3725940821603,0.0050233578614646
63.401321459350754,0.004978585117316
63.43004883654122,0.005002799705107
63.45877621373168,0.0049782685570475
63.487503590922145,0.0049328647904843
63.51623096811261,0.0051568986360238
63.54495834530307,0.00495545032283
63.57368572249353,0.0049277441145016
63.60241309968399,0.0052271821079282
63.63114047687446,0.0050546131732064
63.65986785406492,0.0049702981038438
63.688595231255384,0.0050066793288621
63.71732260844585,0.0050251043647724
63.746049985636304,0.005013411803316
63.77477736282677,0.0050850010151754
63.80350474001723,0.0050677617100928
63.832232117207695,0.0048395093111688
63.86095949439816,0.0050222520109425
63.88968687158862,0.0049632745974883
63.91841424877908,0.0047659098261709
63.94714162596954,0.0047469265062869
63.97586900316001,0.0047587982652723
64.00459638035046,0.0046727593323132
64.03332375754093,0.0046777550773902
64.06205113473139,0.0046188130911908
64.09077851192185,0.0044698251742918
64.11950588911232,0.0045205706623416
64.14823326630278,0.0046478772371001
64.17696064349325,0.0046658713116714
64.20568802068371,0.0045775897667068
64.23441539787417,0.0045999664393651
64.26314277506464,0.0045618003009727
64.2918701522551,0.0045863984057732
64.32059752944556,0.0045870254147349
64.34932490663601,0.0048348280640668
64.37805228382648,0.0046699555475995
64.40677966101694,0.0045178974844102
64.4355070382074,0.0054543343530985
64.46423441539787,0.0048385272854259
64.49296179258833,0.0050090341889774
64.5216891697788,0.004384172411032
64.55041654696926,0.0046058997296055
64.57914392415972,0.0068895081468282
64.60787130135019,0.0022503734533852
64.63659867854065,0.0039559427310412
64.66532605573111,0.004563224402486
64.69405343292156,0.0046985699678042
64.72278081011203,0.0049186389561015
64.75150818730249,0.0049592327203809
64.78023556449295,0.0048728506630515
64.80896294168342,0.0051586264934769
64.83769031887388,0.0052609828448568
64.86641769606435,0.0050467633989142
64.89514507325481,0.00472996510829
64.92387245044527,0.0028286076449565
64.95259982763574,0.0093015666015837
64.9813272048262,0.0319334809156441
65.01005458201665,0.0466606249629565
65.03878195920711,0.0497445514904866
65.06750933639758,0.0501256540535054
65.09623671358804,0.0495849168540802
65.1249640907785,0.0499320949681696
65.15369146796897,0.0449686798920037
65.18241884515943,0.0635263544739619
65.2111462223499,0.049433843350013
65.23987359954036,0.028832991249076567
65.26860097673082,0.0057769409753474
65.29732835392129,0.004113160236541
65.32605573111175,0.0051789685665924
65.3547831083022,0.0048913812891578
65.38351048549266,0.0043793138467357
65.41223786268313,0.0047220997817443
65.44096523987359,0.0047543286944781
65.46969261706406,0.0046767335035695
65.49841999425452,0.0047097060538016
65.52714737144498,0.0047532263179973
65.55587474863545,0.0048211240272672
65.58460212582591,0.0049835495133235
65.61332950301637,0.0051212458285254
65.64205688020684,0.005026701928746
65.6707842573973,0.0045314678625512
65.69951163458775,0.0052383193217898
65.72823901177821,0.0053824172856312
65.75696638896868,0.0049315481826596
65.78569376615914,0.0050371279216944
65.8144211433496,0.0051120902089224
65.84314852054007,0.0049882492302182
65.87187589773053,0.0052075156791436
65.900603274921,0.0051430629774557
65.92933065211146,0.0049183500217717
65.95805802930192,0.0049034506723456
65.98678540649239,0.0051576319762197
66.01551278368285,0.005046343544636
66.0442401608733,0.0050562599256783
66.07296753806376,0.0050533367592953
66.10169491525423,0.004902409775967
66.13042229244469,0.0048573414977947
66.15914966963516,0.0048580649261866
66.18787704682562,0.0047794806438744
66.21660442401608,0.0047578865447634
66.24533180120655,0.0048205062475991
66.27405917839701,0.0047950811079133
66.30278655558747,0.0047925394064971
66.33151393277794,0.0048855502654748
66.3602413099684,0.004970450584614
66.38896868715885,0.0049900030639836
66.41769606434931,0.0050416456604485
66.44642344153978,0.0051572930919813
66.47515081873024,0.0049608922031471
66.5038781959207,0.00494271507898
66.53260557311117,0.0049410332052399
66.56133295030163,0.0048672358204874
66.5900603274921,0.0048480799787796
66.61878770468256,0.0046152623957353
66.64751508187302,0.0045492393482469
66.67624245906349,0.0045743458036663
66.70496983625395,0.0044603568334468
66.7336972134444,0.0046173394939626
66.76242459063486,0.0046911730131729
66.79115196782533,0.0046819297135258
66.81987934501579,0.0048404012717747
66.84860672220626,0.0049775786364383
66.87733409939672,0.0050463546745726
66.90606147658718,0.0052223914943268
66.93478885377765,0.0051756505954216
66.96351623096811,0.0051058066723884
66.99224360815857,0.0049622291933951
67.02097098534904,0.0048209068645607
67.0496983625395,0.0052580918924303
67.07842573972995,0.0051829815856513
67.10715311692041,0.0045530534210837
67.13588049411088,0.0048800495637515
67.16460787130134,0.004833893351528
67.1933352484918,0.0047191967349408
67.22206262568227,0.0050428385008248
67.25079000287273,0.0049822028056164
67.2795173800632,0.0049074521316585
67.30824475725366,0.0048927624763148
67.33697213444412,0.0049693338467831
67.36569951163459,0.0051731355476171
67.39442688882505,0.0052312754997543
67.4231542660155,0.0047954489329244
67.45188164320597,0.0049445639691725
67.48060902039643,0.0047233290864367
67.50933639758689,0.0048371746611495
67.53806377477736,0.004976457738048
67.56679115196782,0.0047346527660382
67.59551852915828,0.0045641922636602
67.62424590634875,0.0046593451561547
67.65297328353921,0.0045673864201092
67.68170066072967,0.0045670966845926
67.71042803792014,0.0045648613383259
67.7391554151106,0.004454711487387
67.76788279230105,0.0048728948042752
67.79661016949152,0.0047566169555612
67.82533754668198,0.0047877828341784
67.85406492387244,0.004782777500075
67.8827923010629,0.004781455297776
67.91151967825337,0.0047472873968346
67.94024705544383,0.004775070503077
67.9689744326343,0.0047278845160398
67.99770180982476,0.0048088714754655
68.02642918701522,0.0046757419944252
68.05515656420569,0.004659526912817
68.08388394139615,0.004712814781801
68.1126113185866,0.00467152621151
68.14133869577707,0.0047718565717177
68.17006607296753,0.0049389380845051
68.19879345015799,0.0049136413228417
68.22752082734846,0.004776548069708
68.25624820453892,0.0046872006639426
68.28497558172938,0.0048146696030612
68.31370295891985,0.0048945384786869
68.34243033611031,0.0048968566842125
68.37115771330078,0.0049587923720848
68.39988509049124,0.0049324867387488
68.4286124676817,0.0050875034350826
68.45733984487215,0.0048057580899885
68.48606722206262,0.0047469034884843
68.51479459925308,0.0048176369070186
68.54352197644354,0.0047389967462378
68.572249353634,0.0047703845566351
68.60097673082447,0.004765534685775
68.62970410801493,0.0047018179079789
68.6584314852054,0.0046352504434375
68.68715886239586,0.0045898555364408
68.71588623958633,0.0045906479377288
68.74461361677679,0.0046157607730104
68.77334099396725,0.0046431910680237
68.8020683711577,0.0046285523440518
68.83079574834817,0.004674068078943
68.85952312553863,0.004998456177162
68.8882505027291,0.006094503483451
68.91697787991956,0.0186344071749964
68.94570525711002,0.000865498058501
68.97443263430048,0.0775970271926028
69.00316001149095,0.059843152055653
69.03188738868141,0.0352314261809217
69.06061476587188,0.0467056575760844
69.08934214306234,0.0478144864573568
69.1180695202528,0.0452914756985797
69.14679689744325,0.0385241246627785
69.17552427463372,0.020194078636070197
69.20425165182418,0.01552752440478175
69.23297902901464,0.016026104326736876
69.2617064062051,0.0117195207129819
69.29043378339557,0.0050528768166391
69.31916116058603,0.0051385007271698
69.3478885377765,0.0047985045518275
69.37661591496696,0.0048901239795078
69.40534329215743,0.0047537657970261
69.43407066934789,0.004895499016435
69.46279804653835,0.004841788578992
69.4915254237288,0.0048591345160365
69.52025280091927,0.0050031855382017
69.54898017810973,0.0050827677371713
69.5777075553002,0.0051325278116581
69.60643493249066,0.0052336755289805
69.63516230968112,0.0050571215086275
69.66388968687158,0.0051342098886509
69.69261706406205,0.0050792418412644
69.72134444125251,0.0050621416092563
69.75007181844298,0.0050742053461656
69.77879919563344,0.004925270194077
69.8075265728239,0.0049079300116152
69.83625395001435,0.0050414206663582
69.86498132720482,0.0050585490484971
69.89370870439528,0.0048955077910896
69.92243608158574,0.0048075766768398
69.95116345877621,0.0054248962962409
69.97989083596667,0.0051361501516038
70.00861821315713,0.0044629647866133
70.0373455903476,0.0050152016091928
70.06607296753806,0.0048655766313279
70.09480034472853,0.0048682446878631
70.12352772191899,0.0049676511032083
70.15225509910945,0.0050898430578797
70.1809824762999,0.0050156962164742
70.20970985349037,0.005086217155389
70.23843723068083,0.0050599561904024
70.2671646078713,0.0049184062310694
70.29589198506176,0.0049782939395951
70.32461936225222,0.004969870700291
70.35334673944269,0.0049304008042356
70.38207411663315,0.0049334647670924
70.41080149382361,0.0048423230931664
70.43952887101408,0.0051575362945046
70.46825624820454,0.0053724539733683
70.496983625395,0.0053122092048216
70.52571100258545,0.0051307347359149
70.55443837977592,0.0059824507863638
70.58316575696638,0.0056729224504196
70.61189313415684,0.0056020847540614
70.64062051134731,0.0056326981376653
70.66934788853777,0.0054162389488782
70.69807526572824,0.0053209414799414
70.7268026429187,0.0053508103624832
70.75553002010916,0.0053060946436154
70.78425739729963,0.0051644728048291
70.81298477449009,0.0050104080883301
70.84171215168054,0.0049052243865006
70.870439528871,0.0049115851973931
70.89916690606147,0.0052417246641608
70.92789428325193,0.0048797975910288
70.9566216604424,0.0051574073939078
70.98534903763286,0.0051269876493022
71.01407641482332,0.0051557978986
71.04280379201379,0.0051722189071614
71.07153116920425,0.005078682221415
71.10025854639471,0.0048454539298986
71.12898592358518,0.0048253737821183
71.15771330077564,0.0050196482181315
71.18644067796609,0.0049313417030611
71.21516805515655,0.0050188726090277
71.24389543234702,0.0049860888640505
71.27262280953748,0.0049929124879251
71.30135018672794,0.0049370416970207
71.33007756391841,0.0049248891190651
71.35880494110887,0.0049021758946711
71.38753231829934,0.0047583292535689
71.4162596954898,0.0045844160218103
71.44498707268026,0.0048360762588328
71.47371444987073,0.0047316095012412
71.50244182706119,0.004798893597958
71.53116920425164,0.0047847815184028
71.5598965814421,0.0047750615082326
71.58862395863257,0.0048150521153283
71.61735133582303,0.0052073849459892
71.6460787130135,0.0051476735302474
71.67480609020396,0.004947650158356
71.70353346739442,0.0050715476322627
71.73226084458489,0.0051927837306639
71.76098822177535,0.0054125480867087
71.78971559896581,0.0052879188426255
71.81844297615628,0.0053277648790509
71.84717035334674,0.0054263255080141
71.87589773053719,0.0051999392264222
71.90462510772765,0.004935664400414
71.93335248491812,0.0048271265259011
71.96207986210858,0.0048417580577385
71.99080723929904,0.0047923902038874
72.01953461648951,0.0047384079761802
72.04826199367997,0.0049400046687398
72.07698937087044,0.0051486405288572
72.1057167480609,0.004896963711679
72.13444412525136,0.0054665235026495
72.16317150244183,0.0054295900961783
72.19189887963229,0.0054878764531967
72.22062625682274,0.0056181981405559
72.2493536340132,0.0052980640457422
72.27808101120367,0.0056214258779425
72.30680838839413,0.0058900507190554
72.3355357655846,0.0052921622174203
72.36426314277506,0.0055636744944463
72.39299051996552,0.0047838157608398
72.42171789715599,0.0051410847137134
72.45044527434645,0.0052454781995759
72.47917265153691,0.0048209341072334
72.50790002872738,0.0047458898431998
72.53662740591784,0.0052349562648551
72.56535478310829,0.0051661304090633
72.59408216029875,0.0049867145217641
72.62280953748922,0.005181584853021
72.65153691467968,0.0050538099582209
72.68026429187015,0.005514897182847
72.70899166906061,0.0046366970179145
72.73771904625107,0.0048664480192136
72.76644642344154,0.0048666471837642
72.795173800632,0.0047734874697325
72.82390117782246,0.0048344692842708
72.85262855501293,0.0047265135200314
72.88135593220339,0.0070963459998899
72.91008330939384,0.001220221058156
72.9388106865843,0.0024555309736126
72.96753806377477,0.0452744480050875
72.99626544096523,0.0518102254571438
73.0249928181557,0.052031713118347
73.05372019534616,0.0520204185759674
73.08244757253662,0.0520681098018457
73.11117494972709,0.0521710492403962
73.13990232691755,0.0520666385619712
73.16862970410801,0.0508566749027052
73.19735708129848,0.028006391870239535
73.22608445848894,0.003258104535378
73.25481183567939,0.0050390221982389
73.28353921286985,0.0046468617827477
73.31226659006032,0.0050052046842331
73.34099396725078,0.0047692405345615
73.36972134444125,0.0047537547527929
73.39844872163171,0.0046190658559454
73.42717609882217,0.0045298306687597
73.45590347601264,0.0045543773083443
73.4846308532031,0.0045577934070374
73.51335823039356,0.0044220122771258
73.54208560758403,0.0044917595249108
73.57081298477449,0.0047457830819379
73.59954036196494,0.0049099312281082
73.6282677391554,0.004894954130603
73.65699511634587,0.0047530352859138
73.68572249353633,0.0048548161625918
73.7144498707268,0.0050213247595833
73.74317724791726,0.0049091275027205
73.77190462510772,0.0048144050995393
73.80063200229819,0.0049026492593239
73.82935937948865,0.0050296914939261
73.85808675667911,0.0048257523345514
73.88681413386958,0.0049982237995647
73.91554151106004,0.0050280719378808
73.94426888825049,0.0048179709182231
73.97299626544095,0.0049329547884951
74.00172364263142,0.0051012015855507
74.03045101982188,0.0047426703524455
74.05917839701235,0.0049058805080466
74.08790577420281,0.0050668988228735
74.11663315139327,0.0049518275359
74.14536052858374,0.0049169861035652
74.1740879057742,0.0049890675158405
74.20281528296466,0.0049646384348934
74.23154266015513,0.0048890012316567
74.26027003734559,0.0048833776592827
74.28899741453604,0.0050107751729096
74.3177247917265,0.0048917067064744
74.34645216891697,0.0047866531498902
74.37517954610743,0.0048505100893005
74.4039069232979,0.0049618637107473
74.43263430048836,0.0049833045654594
74.46136167767882,0.0048769506008373
74.49008905486929,0.0048504772379796
74.51881643205975,0.0047907780208331
74.54754380925021,0.0047359058164292
74.57627118644068,0.0048449870222461
74.60499856363114,0.0048739859832698
74.63372594082159,0.0044599661833018
74.66245331801206,0.0050024246345048
74.69118069520252,0.0050367010106188
74.71990807239298,0.0047676793340136
74.74863544958345,0.0049180421675558
74.77736282677391,0.004995899045037
74.80609020396437,0.0048709080926121
74.83481758115484,0.004948501557586
74.8635449583453,0.0048959581500206
74.89227233553576,0.0047208630835842
74.92099971272623,0.004868666224966
74.94972708991669,0.0048311074880465
74.97845446710714,0.0048386123169535
75.0071818442976,0.0049298609808702
75.03590922148807,0.0048288179322323
75.06463659867853,0.0047883306241863
75.093363975869,0.0049173369660605
75.12209135305946,0.0047837009852609
75.15081873024992,0.0048168222695488
75.17954610744039,0.0048185936422399
75.20827348463085,0.0047515246907249
75.23700086182131,0.0048825147876905
75.26572823901178,0.0044189035860515
75.29445561620224,0.0040867835989404
75.32318299339269,0.004774392475467
75.35191037058316,0.004687724967096
75.38063774777362,0.0047384787473614
75.40936512496408,0.0047667537144697
75.43809250215455,0.0046354023788937
75.46681987934501,0.0050344898387718
75.49554725653547,0.0049839783862703
75.52427463372594,0.0048214464690507
75.5530020109164,0.0048279804974595
75.58172938810687,0.0048983854261628
75.61045676529733,0.0048068500111543
75.63918414248779,0.004934608918369
75.66791151967824,0.0048964301595754
75.6966388968687,0.0049486212662607
75.72536627405917,0.004922636328132
75.75409365124963,0.0048131173439389
75.7828210284401,0.0049205031980287
75.81154840563056,0.0049676963925307
75.84027578282102,0.0046115726006629
75.86900316001149,0.0050289276596045
75.89773053720195,0.0048132333297771
75.92645791439242,0.0048345574079943
75.95518529158288,0.0047319062423124
75.98391266877334,0.0045716535328319
76.01264004596379,0.0048007536953877
76.04136742315426,0.0048957704000948
76.07009480034472,0.0048534678560874
76.09882217753518,0.0048281932602137
76.12754955472565,0.0050209604683651
76.15627693191611,0.0048155028652449
76.18500430910657,0.0043630626877853
76.21373168629704,0.0056829061849745
76.2424590634875,0.0050620439254013
76.27118644067797,0.0049260052875337
76.29991381786843,0.0049163079843535
76.32864119505889,0.0050846712323314
76.35736857224934,0.0051825203047107
76.3860959494398,0.0051280858793593
76.41482332663027,0.0049454057784357
76.44355070382073,0.0049203091662496
76.4722780810112,0.0050426917653375
76.50100545820166,0.0050039967786785
76.52973283539212,0.0049358471154417
76.55846021258259,0.0050425481961275
76.58718758977305,0.004860653948185
76.61591496696352,0.0049937578954357
76.64464234415398,0.0050574107080731
76.67336972134443,0.0049443129175731
76.70209709853489,0.0048840126674509
76.73082447572536,0.005133242221994
76.75955185291582,0.0050655523605853
76.78827923010628,0.0050480501300447
76.81700660729675,0.0050545537105852
76.84573398448721,0.0050402203990876
76.87446136167767,0.0050611461250071
76.90318873886814,0.0050705324434755
76.9319161160586,0.0050697129235336
76.96064349324907,0.0051337838631939
76.98937087043953,0.0066367011033336
77.01809824762998,0.0005574730922642
77.04682562482044,0.0052744745551313
77.0755530020109,0.0432721636235274
77.10428037920137,0.0418065587429459
77.13300775639183,0.0425608413291773
77.1617351335823,0.0420458004588138
77.19046251077276,0.0423195119131018
77.21918988796322,0.0403417467222996
77.24791726515369,0.0437610524936451
77.27664464234415,0.0346866884362787
77.30537201953462,0.02300455071546423
77.33409939672508,0.0064210151340643
77.36282677391553,0.007768417982646
77.39155415110599,0.0050483835238517
77.42028152829646,0.0050711672411057
77.44900890548692,0.0048762722866358
77.47773628267738,0.0049966419299428
77.50646365986785,0.0048047685376843
77.53519103705831,0.0047195825560174
77.56391841424877,0.0046799110186438
77.59264579143924,0.004802999009724
77.6213731686297,0.005049287301478
77.65010054582017,0.0050058169990253
77.67882792301063,0.0046717670156158
77.70755530020108,0.0049414426449179
77.73628267739154,0.0050212175456232
77.765010054582,0.0049470304140539
77.79373743177247,0.0049658346841847
77.82246480896293,0.005129938464124
77.8511921861534,0.0050175816862742
77.87991956334386,0.0047647148659027
77.90864694053433,0.0051794749813315
77.93737431772479,0.005265220488026
77.96610169491525,0.0048618560796306
77.99482907210572,0.0053101206471156
78.02355644929618,0.0053929911334409
78.05228382648663,0.0050116575741353
78.0810112036771,0.0049833569605415
78.10973858086756,0.005088058660982
78.13846595805802,0.0050707214413498
78.16719333524848,0.0050221000073801
78.19592071243895,0.0050138890490123
78.22464808962941,0.005154882652947
78.25337546681988,0.0051277387313834
78.28210284401034,0.0054341693268375
78.3108302212008,0.00481091040027
78.33955759839127,0.0048153496312502
78.36828497558173,0.0051770207361023
78.39701235277218,0.0051660072124842
78.42573972996264,0.0048830020664496
78.4544671071531,0.0050638145682628
78.48319448434357,0.0051215928746637
78.51192186153403,0.0047625144279205
78.5406492387245,0.004860237335636
78.56937661591496,0.0048184454706138
78.59810399310543,0.0047676950234392
78.62683137029589,0.0046586622619455
78.65555874748635,0.0047230413004254
78.68428612467682,0.0048369591811208
78.71301350186728,0.0048112238604782
78.74174087905773,0.0047494466900406
78.7704682562482,0.0047751009266154
78.79919563343866,0.0050008771367514
78.82792301062912,0.0052535059522467
78.85665038781958,0.0052586216240552
78.88537776501005,0.0051250642999601
78.91410514220051,0.005089484962422
78.94283251939098,0.0052385147092529
78.97155989658144,0.0051324401818764
79.0002872737719,0.005169839818634
79.02901465096237,0.0051144125688786
79.05774202815283,0.0048871873122338
79.08646940534328,0.0048222215842175
79.11519678253374,0.0047778450900357
79.14392415972421,0.0048274476563582
79.17265153691467,0.0051647102201107
79.20137891410513,0.0049472956822996
79.2301062912956,0.0049900102554132
79.25883366848606,0.0050243484331728
79.28756104567653,0.0049286842582279
79.31628842286699,0.0049758871911
79.34501580005745,0.0048636576624942
79.37374317724792,0.0047591452679981
79.40247055443838,0.0048015504340837
79.43119793162883,0.0048632465453933
79.4599253088193,0.0048408623031591
79.48865268600976,0.004838785369589
79.51738006320022,0.0048279680008074
79.54610744039068,0.0046619554382802
79.57483481758115,0.0047572253691948
79.60356219477161,0.0048132604984117
79.63228957196208,0.0049003809791506
79.66101694915254,0.0049533356253283
79.689744326343,0.0048800863754462
79.71847170353347,0.0049202150101068
79.74719908072393,0.0049338008785167
79.77592645791438,0.0049734710328137
79.80465383510484,0.0049448053545447
79.83338121229531,0.0048761562263022
79.86210858948577,0.0049866107616607
79.89083596667624,0.004789618326837
79.9195633438667,0.0048528657753964
79.94829072105716,0.004987398740485
79.97701809824763,0.0049012711406474
80.00574547543809,0.0049562979340709
80.03447285262855,0.0050117606134183
80.06320022981902,0.0050777838744591
80.09192760700948,0.0052109195604661
80.12065498419993,0.0050738091360881
80.1493823613904,0.0050497247218992
80.17810973858086,0.005202398132725
80.20683711577132,0.0051798696124628
80.23556449296179,0.0051685561713751
80.26429187015225,0.0052380302741219
80.29301924734271,0.0051954242975696
80.32174662453318,0.0050622701724732
80.35047400172364,0.0048950686475266
80.3792013789141,0.0047833508662866
80.40792875610457,0.0048783216357174
80.43665613329503,0.0047039077442719
80.46538351048548,0.0043674238909576
80.49411088767594,0.0046604072136659
80.52283826486641,0.0047515879903548
80.55156564205687,0.0045202051347316
80.58029301924734,0.0046859913049691
80.6090203964378,0.0049291520327561
80.63774777362826,0.0046998252134177
80.66647515081873,0.0048267494927409
80.69520252800919,0.0049371341797704
80.72392990519965,0.0048712606307655
80.75265728239012,0.0047793828351865
80.78138465958058,0.0048235562151248
80.81011203677103,0.0047866362201848
80.8388394139615,0.0046467577810014
80.86756679115196,0.0045864010793212
80.89629416834242,0.0045802085788305
80.92502154553289,0.0044309422569334
80.95374892272335,0.0046390294337389
80.98247629991381,0.0083759584130145
81.01120367710428,0.0257879573197572
81.03993105429474,0.0454459819996513
81.0686584314852,0.0469592931216682
81.09738580867567,0.0444913224423268
81.12611318586613,0.0450150621524723
81.15484056305658,0.0442679704582772
81.18356794024704,0.0446550015679919
81.21229531743751,0.0478974806790622
81.24102269462797,0.0408154316561838
81.26975007181844,0.0154534817782446
81.2984774490089,0.0061327988188531
81.32720482619936,0.0062367827004887
81.35593220338983,0.0058486465924349
81.38465958058029,0.0054090204279725
81.41338695777075,0.005457550816467
81.44211433496122,0.0050712329111953
81.47084171215168,0.0049627103735802
81.49956908934213,0.0052989220751198
81.5282964665326,0.0054196456588628
81.55702384372306,0.0049823620959453
81.58575122091352,0.0049098549223763
81.61447859810399,0.0049877860158007
81.64320597529445,0.0049372086412204
81.67193335248491,0.0050300940406085
81.70066072967538,0.0048866371634115
81.72938810686584,0.0049635792261049
81.7581154840563,0.0048412260422934
81.78684286124677,0.0049745629571606
81.81557023843723,0.0051550864331407
81.84429761562768,0.0052638218801148
81.87302499281815,0.005267456241117
81.90175237000861,0.0051860297821847
81.93047974719907,0.0051401268568284
81.95920712438954,0.0051986503459662
81.98793450158,0.0051347568597291
82.01666187877046,0.0050781439816165
82.04538925596093,0.005222946899259
82.07411663315139,0.0050463658031618
82.10284401034185,0.0051129824203594
82.13157138753232,0.004825946758008
82.16029876472278,0.0048422237570873
82.18902614191323,0.0048123500531958
82.2177535191037,0.0047572817122177
82.24648089629416,0.0046924386768497
82.27520827348462,0.004628208560988
82.30393565067509,0.0046843412911697
82.33266302786555,0.0047377042138852
82.36139040505601,0.0047732124879781
82.39011778224648,0.004819631863274
82.41884515943694,0.0048919071421768
82.4475725366274,0.0049261725630839
82.47629991381787,0.0048699117282798
82.50502729100832,0.0049085472854389
82.53375466819878,0.0048121854051306
82.56248204538925,0.0048647220055732
82.59120942257971,0.004931209688388
82.61993679977017,0.0047861617311252
82.64866417696064,0.0046235274048088
82.6773915541511,0.0047261258615119
82.70611893134156,0.004836016816957
82.73484630853203,0.0047663790803741
82.76357368572249,0.0047721568591397
82.79230106291295,0.004732974031734
82.82102844010342,0.0047031329151485
82.84975581729387,0.004726811973142
82.87848319448433,0.0047355399665619
82.9072105716748,0.004733408361417
82.93593794886526,0.0044027793924368
82.96466532605572,0.0049009109509439
82.99339270324619,0.0049801651218385
83.02212008043665,0.0049041564484152
83.05084745762711,0.0050522906156781
83.07957483481758,0.0048943954199758
83.10830221200804,0.0050177912601156
83.1370295891985,0.0050466920066829
83.16575696638897,0.0050929802335667
83.19448434357942,0.0050276831888456
83.22321172076988,0.0050651378002383
83.25193909796035,0.0048875305905408
83.28066647515081,0.0048308429797592
83.30939385234127,0.0048782759728501
83.33812122953174,0.0050316111662528
83.3668486067222,0.005018040499154
83.39557598391266,0.004940434931934
83.42430336110313,0.0050285073746444
83.45303073829359,0.0052675073066512
83.48175811548406,0.0051753497715131
83.51048549267452,0.0049487520402309
83.53921286986497,0.0049771088319093
83.56794024705543,0.005022707213888
83.5966676242459,0.0050104784877187
83.62539500143636,0.0048687533319342
83.65412237862682,0.0048721554798328
83.68284975581729,0.0048596194950388
83.71157713300775,0.004697803892514
83.74030451019821,0.0046950707123168
83.76903188738868,0.0048725373572051
83.79775926457914,0.0047878767148257
83.8264866417696,0.0046332377188599
83.85521401896007,0.0048880558438493
83.88394139615052,0.0049192544125325
83.91266877334098,0.0048563612688911
83.94139615053145,0.0048106016343085
83.97012352772191,0.0047897146998536
83.99885090491237,0.0046711936665566
84.02757828210284,0.0047274149622169
84.0563056592933,0.004867790780047
84.08503303648376,0.0047051778788725
84.11376041367423,0.003948044710382
84.14248779086469,0.006429663993593
84.17121516805516,0.0049867473508349
84.19994254524562,0.0051908227837669
84.22866992243607,0.0052131746589094
84.25739729962653,0.0050172764910781
84.286124676817,0.004997314815494
84.31485205400746,0.0050292881575735
84.34357943119792,0.0049756851997127
84.37230680838839,0.0049100566076318
84.40103418557885,0.0047374069051656
84.42976156276931,0.005453281312316
84.45848893995978,0.0046596061528677
84.48721631715024,0.0045025132412543
84.5159436943407,0.0052537536794118
84.54467107153117,0.0050223651041253
84.57339844872162,0.0048518786708419
84.60212582591208,0.0049071090886845
84.63085320310255,0.0049404655123959
84.65958058029301,0.0049469308873458
84.68830795748347,0.0050072853607167
84.71703533467394,0.0051212401756376
84.7457627118644,0.0048157403288961
84.77449008905486,0.0048404553194595
84.80321746624533,0.0049349430264589
84.83194484343579,0.0049266727757949
84.86067222062626,0.0049803093540456
84.88939959781672,0.0051647925810924
84.91812697500717,0.0051691342063392
84.94685435219763,0.00396334000712
84.9755817293881,0.0066713475421206
85.00430910657856,0.015542673334053
85.03303648376902,0.0271159338873704
85.06176386095949,0.0369999609524075
85.09049123814995,0.0404527866785907
85.11921861534042,0.0401090744884783
85.14794599253088,0.0409477069313949
85.17667336972134,0.0396416074921927
85.2054007469118,0.0395853496182401
85.23412812410227,0.0477522383987362
85.26285550129272,0.011831251313467
85.29158287848318,0.008139236626845
85.32031025567365,0.0095649215526004
85.34903763286411,0.0059094529926473
85.37776501005457,0.0054937630664653
85.40649238724504,0.0054461099271208
85.4352197644355,0.0055040768487363
85.46394714162597,0.0064333673314938
85.49267451881643,0.0041942980936566
85.52140189600689,0.0051259403263158
85.55012927319736,0.0049212850725988
85.57885665038782,0.0049993665710927
85.60758402757827,0.0051690499441217
85.63631140476873,0.0050863208387812
85.6650387819592,0.0049885323528091
85.69376615914966,0.0049529706868152
85.72249353634012,0.0048318591496197
85.75122091353059,0.004934369953075
85.77994829072105,0.0051548042946328
85.80867566791152,0.0049077152519272
85.83740304510198,0.0047172512821968
85.86613042229244,0.0049032687644791
85.8948577994829,0.0048600037345409
85.92358517667337,0.0047123061497262
85.95231255386382,0.0046256115680154
85.98103993105428,0.0046934413969342
86.00976730824475,0.0048034584122961
86.03849468543521,0.0047660745132377
86.06722206262567,0.0047436045511154
86.09594943981614,0.0048024015114645
86.1246768170066,0.0048746123008591
86.15340419419707,0.0048710060154724
86.18213157138753,0.0048660237625066
86.210858948578,0.0048979277057241
86.23958632576846,0.0048617112132158
86.26831370295892,0.0048707456349498
86.29704108014937,0.0048976128156149
86.32576845733983,0.0047298138362925
86.3544958345303,0.0047872656591054
86.38322321172076,0.0046860414073516
86.41195058891122,0.004849943033349
86.44067796610169,0.0049679515728985
86.46940534329215,0.0047443684044754
86.49813272048262,0.0049940139344927
86.52686009767308,0.0050579647160775
86.55558747486354,0.0048161808416051
86.584314852054,0.0048569902819617
86.61304222924447,0.0048237104953493
86.64176960643492,0.0046552460153653
86.67049698362538,0.0046397731904792
86.69922436081585,0.0047479972636447
86.72795173800631,0.0048230156241053
86.75667911519677,0.0049207686872759
86.78540649238724,0.0048433547198818
86.8141338695777,0.0048547709023094
86.84286124676817,0.0049582582450907
86.87158862395863,0.0048407485395044
86.9003160011491,0.0045961938812174
86.92904337833956,0.0045209092424929
86.95777075553002,0.0044704499884888
86.98649813272047,0.0046352553335848
87.01522550991093,0.0044594639293821
87.0439528871014,0.005051794640897
87.07268026429186,0.005158695134871
87.10140764148233,0.004073875586926
87.13013501867279,0.0047525264543263
87.15886239586325,0.0047572217625942
87.18758977305372,0.004783553370267
87.21631715024418,0.0047811259486301
87.24504452743464,0.0047124168165518
87.27377190462511,0.0046921706140566
87.30249928181557,0.0047188744660668
87.33122665900602,0.0046940431038049
87.35995403619648,0.0048869012688077
87.38868141338695,0.0048270563681911
87.41740879057741,0.0047314916111039
87.44613616776788,0.004837997497967
87.47486354495834,0.0049132921917815
87.5035909221488,0.0050682859387985
87.53231829933927,0.0051250662114133
87.56104567652973,0.0049530449707644
87.5897730537202,0.0048160219042108
87.61850043091066,0.0048227232447496
87.64722780810112,0.0048671887328794
87.67595518529157,0.0048473347673848
87.70468256248203,0.0047435713295069
87.7334099396725,0.0047252630161068
87.76213731686296,0.004736063730362
87.79086469405343,0.004692002000186
87.81959207124389,0.0046811323135906
87.84831944843435,0.0048155469271653
87.87704682562482,0.0048329204298813
87.90577420281528,0.0047908756634798
87.93450158000574,0.0048585180099105
87.96322895719621,0.0048779988034726
87.99195633438667,0.0049724646143829
88.02068371157712,0.0048578628035445
88.04941108876758,0.0049299349922472
88.07813846595805,0.0047936113727283
88.10686584314851,0.0048532158629237
88.13559322033898,0.0047600206654749
88.16432059752944,0.0047139800089251
88.1930479747199,0.004759862064471
88.22177535191037,0.0046937508453175
88.25050272910083,0.0046162495822167
88.2792301062913,0.0048422331034867
88.30795748348176,0.0046331304506523
88.33668486067221,0.0044780483455801
88.36541223786267,0.0048976958744301
88.39413961505313,0.0046291574661546
88.4228669922436,0.0046580033893369
88.45159436943406,0.0047733835374792
88.48032174662453,0.0046250282614721
88.50904912381499,0.0047150037199356
88.53777650100545,0.0046795218934088
88.56650387819592,0.0046542403784298
88.59523125538638,0.0046538829264376
88.62395863257684,0.0050329004754474
88.65268600976731,0.0044454656806091
88.68141338695776,0.0045847925521823
88.71014076414822,0.004863415820673
88.73886814133868,0.0047352288729659
88.76759551852915,0.0048593197201324
88.79632289571961,0.0044411456489892
88.82505027291008,0.0049457211146453
88.85377765010054,0.0052929776906632
88.882505027291,0.0046922542658694
88.91123240448147,0.004642850516208
88.93995978167193,0.0049045454918136
88.9686871588624,0.0047910334897391
88.99741453605286,0.0123761013565528
89.02614191324331,0.0036936322532408
89.05486929043377,0.0018002467477884
89.08359666762424,0.0649118781581777
89.1123240448147,0.063701093727237
89.14105142200516,0.0631605487179019
89.16977879919563,0.0636514230762072
89.19850617638609,0.0637121889922084
89.22723355357655,0.0579145550366435
89.25596093076702,0.0693743485229159
89.28468830795748,0.0752869598137611
89.31341568514794,0.0021109587563007
89.34214306233841,0.0058383972273408
89.37087043952886,0.0089996681666576
89.39959781671932,0.0054990436839299
89.42832519390979,0.0054399175614172
89.45705257110025,0.0050673580217643
89.48577994829071,0.0048785970092937
89.51450732548118,0.0046305403681331
89.54323470267164,0.0046671959927665
89.5719620798621,0.0046555870001567
89.60068945705257,0.0046734734325912
89.62941683424303,0.0046249414988641
89.6581442114335,0.0047065406686784
89.68687158862396,0.0048565907670871
89.71559896581441,0.0048784293241012
89.74432634300487,0.0042668046537127
89.77305372019534,0.0060672144882905
89.8017810973858,0.0051489058578416
89.83050847457626,0.0055503737530214
89.85923585176673,0.0052693067732156
89.88796322895719,0.0052439699493221
89.91669060614765,0.0053928741880931
89.94541798333812,0.0052322374975206
89.97414536052858,0.0049613750487714
90.00287273771904,0.0051780554982651
90.03160011490951,0.0051162184655127
90.06032749209996,0.0048926338969432
90.08905486929042,0.004867737979245
90.11778224648089,0.0048592307851161
90.14650962367136,0.0048768447957327
90.1752370008618,0.0051149627362046
90.20396437805228,0.0046143365509153
90.23269175524274,0.0048935661459919
90.2614191324332,0.0048336764144028
90.29014650962368,0.0048984267417624
90.31887388681412,0.0050155293159661
90.3476012640046,0.0047153261713699
90.37632864119506,0.0047703399750659
90.40505601838552,0.0047621669598266
90.43378339557596,0.0047572957741635
90.46251077276644,0.0047892255558457
90.4912381499569,0.0048809550877491
90.51996552714736,0.0050011620351779
90.54869290433784,0.0050315636045309
90.57742028152828,0.0048306314279792
90.60614765871875,0.0050174729003174
90.63487503590922,0.0050611057670662
90.66360241309968,0.0048198350649946
90.69232979029016,0.0047586591853934
90.7210571674806,0.0048499574784794
90.74978454467106,0.0047789376829174
90.77851192186152,0.0048541035451589
90.807239299052,0.0046989486345298
90.83596667624244,0.0051477723688287
90.86469405343291,0.0049042246518881
90.89342143062338,0.0042933725675797
90.92214880781384,0.0049530780880407
90.9508761850043,0.0048703844911836
90.97960356219475,0.0047325892785325
91.00833093938525,0.004788115369795
91.0370583165757,0.0047742832802291
91.06578569376616,0.0047868957152584
91.0945130709566,0.0047903894342741
91.12324044814709,0.0047890984387133
91.15196782533754,0.0047621525493818
91.180695202528,0.0046798455690924
91.20942257971846,0.0045855017433112
91.23814995690891,0.0046256205587795
91.2668773340994,0.0047632266903524
91.29560471128984,0.0047618509913586
91.32433208848032,0.0046883570058303
91.35305946567078,0.0046746797529507
91.38178684286125,0.0048730566332014
91.41051422005172,0.004662373496836
91.43924159724216,0.0045206697600541
91.46796897443262,0.0049752703466573
91.49669635162309,0.0049137892985682
91.52542372881356,0.0042187556647429
91.554151106004,0.0045460306050187
91.58287848319448,0.0047321457599385
91.61160586038494,0.0046706516615405
91.6403332375754,0.0048698031755407
91.66906061476588,0.0047780517332268
91.69778799195632,0.0048499411396035
91.7265153691468,0.0051070629263214
91.75524274633726,0.0051977939423374
91.78397012352772,0.0050980543721023
91.81269750071816,0.0048599003170196
91.84142487790864,0.005127120153179
91.8701522550991,0.005041972114221
91.89887963228956,0.0048139738583307
91.92760700948004,0.0052605605053517
91.95633438667048,0.0048667471979957
91.98506176386095,0.0046357748722793
92.01378914105142,0.0048122199777703
92.04251651824188,0.0049402871525915
92.07124389543236,0.0047093035620741
92.0999712726228,0.0049013403245767
92.12869864981326,0.0049457588130462
92.15742602700372,0.0048672107149365
92.1861534041942,0.0048630056713713
92.21488078138464,0.0049811100074123
92.24360815857511,0.0046517388192778
92.27233553576558,0.004610127416116
92.30106291295604,0.0049771787312731
92.3297902901465,0.0046396621156389
92.35851766733695,0.0045313440873222
92.38724504452745,0.004628861078964
92.4159724217179,0.0045884408835744
92.44469979890836,0.0046196512887908
92.4734271760988,0.0045647867247094
92.50215455328927,0.0043988246146153
92.53088193047974,0.0044909703766448
92.5596093076702,0.0045076507268831
92.58833668486066,0.0045455865260568
92.61706406205111,0.0046375110672629
92.6457914392416,0.004649671479234
92.67451881643206,0.00462720999777
92.70324619362252,0.0046339497878768
92.73197357081298,0.0046140141024892
92.76070094800345,0.0046367694448828
92.78942832519392,0.0046406205357178
92.81815570238436,0.0043585171541796
92.84688307957482,0.0044115818364686
92.87561045676529,0.0044786987388252
92.90433783395576,0.0045011784457188
92.9330652111462,0.0046070186903014
