timestamp,emg
0.0,0.0049042204867977
0.0287273771904625,0.0055828686848524
0.057454754380925,0.0047949644311299
0.0861821315713875,0.0044695143737941
0.11490950876185,0.0057145442878107
0.1436368859523125,0.0043197314706953
0.172364263142775,0.0026233894431585
0.2010916403332375,0.00990115814694
0.2298190175237,0.0085150864676706
0.2585463947141626,0.0085308643081295
0.2872737719046251,0.0084168036209091
0.3160011490950876,0.0084891429397647
0.3447285262855501,0.0082327695215458
0.3734559034760126,0.0082633234086836
0.4021832806664751,0.007280097252689
0.4309106578569376,0.0069057204004638
0.4596380350474001,0.005442961433336
0.4883654122378627,0.0048502609451916
0.5170927894283252,0.005318075232948
0.5458201666187876,0.0050414129465809
0.5745475438092502,0.0046481047170752
0.6032749209997127,0.0051602686251452
0.6320022981901752,0.0049989914143925
0.6607296753806376,0.0050552731037457
0.6894570525711002,0.0050110624982181
0.7181844297615627,0.0044153935677681
0.7469118069520252,0.0046428922810019
0.7756391841424878,0.0046956512709038
0.8043665613329503,0.0048732573859377
0.8330939385234127,0.0049506317101218
0.8618213157138752,0.004654296569306
0.8905486929043378,0.0056590884590909
0.9192760700948004,0.0054403825006119
0.9480034472852628,0.0051045328972643
0.9767308244757252,0.005494134688192
1.0054582016661875,0.0063681409021328
1.0341855788566503,0.0082687436205623
1.062912956047113,0.0076710148087346
1.0916403332375753,0.0077448189029515
1.1203677104280378,0.0079008818239714
1.1490950876185004,0.0077932491189996
1.1778224648089628,0.0076955627932246
1.2065498419994254,0.0075355921950754
1.235277219189888,0.006107259963049
1.2640045963803503,0.0052514848451474
1.292731973570813,0.0051409828808295
1.3214593507612753,0.0040099784540221
1.350186727951738,0.006682669839687
1.3789141051422005,0.0057846383582949
1.4076414823326628,0.0049147248634417
1.4363688595231254,0.0053579536831828
1.465096236713588,0.0056459869704184
1.4938236139040504,0.0052291979052418
1.522550991094513,0.0052726503123848
1.5512783682849756,0.0052023250017739
1.580005745475438,0.005121826876115
1.6087331226659003,0.0052111064017368
1.637460499856363,0.0052014694483481
1.6661878770468257,0.0051391294080457
1.694915254237288,0.0052799826355497
1.7236426314277504,0.0048195681378351
1.752370008618213,0.0054384717146286
1.7810973858086756,0.0071043352057015
1.809824762999138,0.0071950050705262
1.8385521401896008,0.0075949873595035
1.8672795173800631,0.0076809018399711
1.8960068945705255,0.0075300486874388
1.924734271760988,0.0075380025804175
1.9534616489514507,0.0083654529433233
1.982189026141913,0.0071829483284614
2.010916403332375,0.0037832300963447
2.0396437805228382,0.0050780162563442
2.0683711577133006,0.0050245202610357
2.097098534903763,0.0047276438503168
2.125825912094226,0.0048760279288392
2.154553289284688,0.0050981198888272
2.1832806664751505,0.0052357149548791
2.2120080436656133,0.0052891073781269
2.2407354208560757,0.0054772276307661
2.269462798046538,0.0056462018748751
2.298190175237001,0.0056712173271312
2.3269175524274632,0.0057342770002945
2.3556449296179256,0.0055524122008549
2.3843723068083884,0.0053561491000052
2.4130996839988508,0.005451764601199
2.441827061189313,0.0054529666945547
2.470554438379776,0.0048131809289731
2.4992818155702383,0.0046393042142386
2.5280091927607007,0.0042710125471005
2.5567365699511635,0.0051022303297226
2.585463947141626,0.0071268951880692
2.614191324332088,0.0077945841536742
2.6429187015225506,0.0077111756969434
2.6716460787130134,0.0077989778424524
2.700373455903476,0.0075821615507387
2.729100833093938,0.0081689674014445
2.757828210284401,0.0089023583840418
2.7865555874748633,0.0055477628602433
2.8152829646653257,0.00594844204751
2.8440103418557885,0.005960812220361
2.872737719046251,0.005531567337075
2.9014650962367132,0.0056520031023648
2.930192473427176,0.0056406899968555
2.9589198506176384,0.0054325006035285
2.9876472278081008,0.005618941863854
3.0163746049985636,0.0053266553542752
3.045101982189026,0.0052486613620186
3.0738293593794883,0.0051330020138684
3.102556736569951,0.0050826226179631
3.1312841137604135,0.005419579497079
3.160011490950876,0.0050850868437635
3.1887388681413387,0.0053636080061723
3.217466245331801,0.0055814276635385
3.2461936225222634,0.0056036088640283
3.274920999712726,0.0057215726936277
3.303648376903189,0.0058113932511272
3.332375754093651,0.0057758077330019
3.3611031312841133,0.0067984590638496
3.389830508474576,0.0081613957691162
3.4185578856650385,0.0089551931017899
3.447285262855501,0.008819953141376
3.4760126400459637,0.0090100746807511
3.504740017236426,0.0090636769293409
3.5334673944268884,0.008809456429775
3.562194771617351,0.0092455519821596
3.5909221488078136,0.0098196318958053
3.619649525998276,0.0065474928436744
3.648376903188739,0.0051823784885815
3.677104280379201,0.0057309490524766
3.705831657569663,0.0056438386325575
3.7345590347601263,0.0053498790773875
3.7632864119505887,0.0053354494009011
3.792013789141051,0.0055868362525179
3.820741166331514,0.0058109439054441
3.849468543521976,0.0059167030220303
3.8781959207124386,0.0057556139549183
3.9069232979029014,0.0057604414943351
3.935650675093364,0.0065476445750774
3.964378052283826,0.0079722958962649
3.993105429474289,0.0091142787056407
4.021832806664751,0.011333987966984
4.050560183855214,0.0127494292924944
4.0792875610456765,0.0130051505138248
4.108014938236138,0.0129940810325005
4.136742315426601,0.013056811962889
4.165469692617064,0.012590659796401
4.194197069807526,0.0119454904997506
4.222924446997989,0.0110690532201804
4.251651824188452,0.0099349272094234
4.2803792013789135,0.0089013503265554
4.309106578569376,0.0083018166651599
4.337833955759839,0.0082128405586597
4.366561332950301,0.0081679611917715
4.395288710140764,0.0082848010047107
4.424016087331227,0.0088906015639715
4.452743464521689,0.0076813320751517
4.481470841712151,0.0059268009402308
4.510198218902614,0.0067941113621166
4.538925596093076,0.0065434305284454
4.567652973283539,0.0073470958129911
4.596380350474002,0.0068621160981534
4.625107727664464,0.0064819041118241
4.6538351048549265,0.0065258927309299
4.682562482045389,0.0064103496328916
4.711289859235851,0.0062136838256199
4.740017236426314,0.0062157684385195
4.768744613616777,0.0059930563555798
4.797471990807239,0.0065058581262532
4.8261993679977016,0.005978030752062
4.854926745188164,0.0060401360085021
4.883654122378626,0.005751411743999
4.912381499569089,0.0056722207272103
4.941108876759552,0.006581795400193
4.969836253950014,0.0078100674179711
4.998563631140477,0.0082317627198609
5.0272910083309394,0.0082008937781363
5.056018385521401,0.0081909467040037
5.084745762711864,0.0081837904369373
5.113473139902327,0.0081984857911475
5.142200517092789,0.0082405087154023
5.170927894283252,0.008075392896671
5.199655271473714,0.0062718509977492
5.2283826486641765,0.005034056834189
5.257110025854639,0.0051976178394156
5.285837403045101,0.0052964639314036
5.314564780235564,0.0057354945974467
5.343292157426027,0.0054871365639141
5.372019534616489,0.0052062309479985
5.4007469118069515,0.0058838962544564
5.429474288997414,0.0056030361139993
5.458201666187876,0.006103055479758
5.486929043378339,0.0052556576357528
5.515656420568802,0.0048920000670007
5.544383797759264,0.0054805133088507
5.573111174949727,0.0051834935622245
5.601838552140189,0.0043171607621614
5.630565929330651,0.0063534490090574
5.659293306521114,0.0054701054318562
5.688020683711577,0.0053625113077745
5.716748060902039,0.0057199328369255
5.745475438092502,0.0063003380997353
5.7742028152829645,0.0075305251221138
5.8029301924734265,0.0083284499222417
5.831657569663889,0.0081995007301305
5.860384946854352,0.0081973130244746
5.889112324044814,0.0083412592195712
5.917839701235277,0.007767612505789
5.94656707842574,0.0079921040140283
5.9752944556162015,0.0071118648172029
6.004021832806664,0.0059589420280023
6.032749209997127,0.0053756292871654
6.061476587187589,0.0050415982621253
6.090203964378052,0.0052990916410541
6.118931341568515,0.0054773719386897
6.147658718758977,0.0055555795431864
6.176386095949439,0.005574641857652
6.205113473139902,0.0057534362990274
6.233840850330364,0.0059765209097666
6.262568227520827,0.0059763952682039
6.29129560471129,0.0059917460210953
6.320022981901752,0.0061442644705553
6.3487503590922145,0.0060739192073192
6.377477736282677,0.0058959068254098
6.406205113473139,0.0059573895244399
6.434932490663602,0.006145356373027
6.463659867854065,0.0058136295046986
6.492387245044527,0.0059569702890265
6.52111462223499,0.0082173295347082
6.549841999425452,0.0095691168929751
6.578569376615914,0.0092466522403423
6.607296753806377,0.0090320233038303
6.636024130996839,0.0090692442723029
6.664751508187302,0.0090580325962504
6.693478885377765,0.0084749024287522
6.722206262568227,0.0078073816198128
6.750933639758689,0.0071772459721652
6.779661016949152,0.0041029545516012
6.808388394139614,0.005139087475066
6.837115771330077,0.0055957248154729
6.86584314852054,0.005309536328671
6.894570525711002,0.0053554487770378
6.9232979029014645,0.0055309443821378
6.952025280091927,0.0055787738488301
6.980752657282389,0.0055123939733152
7.009480034472852,0.0055633509466276
7.038207411663315,0.0055914247139251
7.066934788853777,0.0054123994642015
7.09566216604424,0.0060137279199285
7.124389543234702,0.0057632207194684
7.153116920425164,0.0055604516585231
7.181844297615627,0.0055376013628584
7.21057167480609,0.0054705763455662
7.239299051996552,0.005697075291501
7.268026429187015,0.0065505759214594
7.296753806377477,0.0077500509325985
7.325481183567939,0.0083147225756759
7.354208560758402,0.0081938373696043
7.382935937948865,0.0085524592044471
7.411663315139327,0.0080022174350808
7.44039069232979,0.0073516367710163
7.469118069520253,0.0096972557544748
7.497845446710715,0.00489629613926
7.526572823901177,0.0051578287183118
7.55530020109164,0.0070229362251968
7.584027578282102,0.0063831305281308
7.612754955472565,0.0055873737397285
7.641482332663028,0.0070539458318578
7.67020970985349,0.0063727540019732
7.698937087043952,0.0062690075789395
7.727664464234415,0.0065220213680287
7.756391841424877,0.0064292573648648
7.78511921861534,0.0063032463547416
7.813846595805803,0.0062435052870887
7.842573972996265,0.0061388040049664
7.871301350186728,0.0060985634445707
7.90002872737719,0.0075066019002362
7.928756104567652,0.0105222214560536
7.957483481758115,0.0151882559884242
7.986210858948578,0.0193358076381876
8.01493823613904,0.0199604549194329
8.043665613329502,0.0200771159505256
8.072392990519965,0.0203498148193805
8.101120367710427,0.0208953386883389
8.12984774490089,0.0203417374911376
8.158575122091353,0.0162516467530095
8.187302499281815,0.0142856253122056
8.216029876472277,0.0153040422358553
8.24475725366274,0.0084183338624494
8.273484630853202,0.0092623799280873
8.302212008043664,0.007920320782271
8.330939385234128,0.0061958703802323
8.35966676242459,0.0055916265717747
8.388394139615052,0.0058708881019361
8.417121516805516,0.0058155016434935
8.445848893995977,0.0056142961691725
8.47457627118644,0.0057590261053588
8.503303648376903,0.0055427648202818
8.532031025567365,0.0052638916033611
8.560758402757827,0.0051748825328257
8.58948577994829,0.0052187513893857
8.618213157138753,0.0050295727183204
8.646940534329215,0.0051072380432462
8.675667911519678,0.0052117269115813
8.70439528871014,0.0056879816750807
8.733122665900602,0.0054090285169039
8.761850043091066,0.0053725974058925
8.790577420281528,0.0060487531864286
8.81930479747199,0.0069173117952607
8.848032174662453,0.0072205929049315
8.876759551852915,0.0088778491676339
8.905486929043377,0.009140234373734
8.93421430623384,0.0087102773903296
8.962941683424303,0.0088546882201634
8.991669060614765,0.0084648440960954
9.020396437805228,0.010042834253301
9.04912381499569,0.0089138263502479
9.077851192186152,0.0046799290807892
9.106578569376616,0.0058251594712747
9.135305946567078,0.0056871694431525
9.16403332375754,0.0058842236843579
9.192760700948003,0.0059798775060615
9.221488078138464,0.0056317218143668
9.250215455328927,0.0059224400740663
9.278942832519393,0.0060039931484467
9.307670209709851,0.0058376659195229
9.336397586900317,0.0056255264670371
9.36512496409078,0.0056614756183965
9.39385234128124,0.0057450029651487
9.422579718471702,0.0055936455718326
9.451307095662166,0.0059004064707748
9.480034472852628,0.0059466272762146
9.50876185004309,0.0058922683851832
9.537489227233554,0.0057396494040127
9.566216604424016,0.0055164035949112
9.594943981614476,0.0053731431663219
9.62367135880494,0.0071164845699842
9.652398735995405,0.0093145020731781
9.681126113185863,0.0086973556957774
9.709853490376329,0.0087043183166174
9.73858086756679,0.0089868947594572
9.767308244757253,0.0091779099259532
9.796035621947716,0.010417831266065
9.824762999138178,0.0079986024075372
9.85349037632864,0.0061869416452161
9.882217753519104,0.005836482572969
9.910945130709566,0.0053600572248334
9.939672507900028,0.0052508083679725
9.968399885090491,0.0051615680841367
9.997127262280951,0.005092624512653
10.025854639471415,0.0052936249669887
10.05458201666188,0.00510852285897
10.08330939385234,0.0050852459221341
10.112036771042805,0.0053303201271118
10.140764148233266,0.0055081561536842
10.169491525423728,0.0054764979176507
10.19821890261419,0.0053928495241598
10.226946279804654,0.0055261457674234
10.255673656995116,0.0056679187076194
10.284401034185578,0.0055734690419673
10.31312841137604,0.0054992357654974
10.341855788566503,0.0054270918476486
10.370583165756964,0.0051434502670185
10.399310542947427,0.0050047139447304
10.428037920137893,0.0068819585606585
10.456765297328351,0.008125264575956
10.485492674518817,0.0079921649076537
10.51422005170928,0.0079749659313094
10.54294742889974,0.0082208428735816
10.571674806090202,0.0082147705481526
10.600402183280666,0.0083532348714463
10.629129560471128,0.0083495035118071
10.65785693766159,0.0078286847939927
10.686584314852054,0.0071068694901901
10.715311692042516,0.0053929057083281
10.744039069232976,0.0060634488068844
10.77276644642344,0.0058323445205262
10.801493823613905,0.0060032801497222
10.830221200804363,0.005945229932058
10.858948577994829,0.0057439271823207
10.88767595518529,0.0056185054029714
10.916403332375753,0.00576824235002
10.945130709566216,0.0059061574849688
10.973858086756678,0.0058737660092931
11.00258546394714,0.0066049099345589
11.031312841137604,0.0055506203695249
11.060040218328066,0.0058926806271878
11.088767595518528,0.005770600857569
11.117494972708991,0.0060462292255112
11.146222349899451,0.0058946768892397
11.174949727089915,0.0048991078583884
11.20367710428038,0.0065904748689096
11.23240448147084,0.0079883624979793
11.261131858661305,0.0075738642080426
11.289859235851766,0.0076630677486393
11.318586613042228,0.0076487954802021
11.34731399023269,0.0075247603662723
11.376041367423154,0.007506577497991
11.404768744613616,0.0075898894892295
11.433496121804078,0.0069275830727972
11.462223498994542,0.0055821881225698
11.490950876185003,0.0050493289602182
11.519678253375464,0.0050128658832892
11.548405630565927,0.0058598607286865
11.577133007756393,0.0055987744972343
11.605860384946851,0.0055943289220602
11.634587762137317,0.005774511875892
11.66331513932778,0.0057521135498366
11.69204251651824,0.0056290446137468
11.720769893708704,0.0056349118270089
11.749497270899166,0.0056004283451195
11.778224648089628,0.0055526033848436
11.806952025280092,0.0056779584192233
11.835679402470554,0.0059191956109364
11.864406779661016,0.0057707504869401
11.89313415685148,0.0058744795200417
11.92186153404194,0.0067630193447104
11.950588911232405,0.0107499331860341
11.979316288422869,0.0123713245009498
12.008043665613329,0.0150140330864345
12.03677104280379,0.0159423003739001
12.065498419994254,0.0146348199533162
12.094225797184716,0.0154000053145229
12.122953174375178,0.0161385487245537
12.151680551565642,0.0148481415444985
12.180407928756104,0.0128727647833595
12.209135305946566,0.0094517261626089
12.23786268313703,0.0099675523727472
12.266590060327491,0.0121129748932051
12.295317437517951,0.0031923428718496
12.324044814708415,0.0066730631996169
12.35277219189888,0.0054940090122079
12.38149956908934,0.0064199982850566
12.410226946279804,0.0065458618122962
12.438954323470266,0.0059337682413384
12.467681700660728,0.0060253741773418
12.496409077851192,0.0061353170901442
12.525136455041654,0.006654184225058
12.553863832232116,0.006557871712957
12.58259120942258,0.0063505801511354
12.611318586613042,0.0063533563499963
12.640045963803503,0.0064652449141483
12.668773340993967,0.0059672255343727
12.697500718184427,0.0058349090261244
12.726228095374893,0.0063015328545046
12.754955472565356,0.0060220766987776
12.783682849755817,0.005126869921706
12.81241022694628,0.0059457284127782
12.841137604136742,0.0064942260776598
12.869864981327204,0.0062141802364464
12.898592358517666,0.0084688095678378
12.92731973570813,0.0095313145504114
12.956047112898592,0.0095663232510617
12.984774490089054,0.0096710246067171
13.013501867279516,0.0093168897748859
13.04222924446998,0.0093114801781225
13.07095662166044,0.0093381153683857
13.099683998850905,0.0085307954204305
13.128411376041369,0.0071178739644154
13.157138753231829,0.0057541989271748
13.185866130422292,0.0051177519449558
13.214593507612754,0.005427635773313
13.243320884803216,0.0056831099940817
13.272048261993678,0.0055322401636215
13.300775639184142,0.0054447570303938
13.329503016374604,0.0055978536426672
13.358230393565066,0.0054469955033349
13.38695777075553,0.0057351250026524
13.415685147945991,0.0061058525617749
13.444412525136451,0.0061749772298809
13.473139902326915,0.0060966477552024
13.50186727951738,0.0062266606090424
13.53059465670784,0.0061358468195219
13.559322033898304,0.0062591080651967
13.588049411088766,0.0059293881106193
13.616776788279228,0.0056789372769496
13.645504165469692,0.0059007807520685
13.674231542660154,0.0065171774200874
13.702958919850616,0.0083229458408247
13.73168629704108,0.0089131138441828
13.76041367423154,0.008861639089309
13.789141051422003,0.0088528789777826
13.817868428612467,0.0088056450263897
13.846595805802927,0.0087815902046747
13.875323182993393,0.0089451396965158
13.904050560183856,0.0079215359231449
13.932777937374317,0.0059894277858259
13.96150531456478,0.0051773683972508
13.990232691755242,0.0052339614863881
14.018960068945704,0.0051599168240285
14.047687446136166,0.0050595306614876
14.07641482332663,0.0050517344853772
14.105142200517092,0.0050570812335369
14.133869577707554,0.0051261655661838
14.162596954898016,0.0052562354467408
14.19132433208848,0.0052828069363092
14.22005170927894,0.0053914191034405
14.248779086469405,0.0055307969664723
14.277506463659869,0.0055930365179346
14.306233840850329,0.0056298750820018
14.334961218040792,0.0056504322751639
14.363688595231254,0.0056361945988065
14.392415972421716,0.005602071314599
14.42114334961218,0.0056148659784846
14.449870726802642,0.0059935888459404
14.478598103993104,0.0072112688946633
14.507325481183567,0.0092459398165608
14.53605285837403,0.0099396815815342
14.564780235564491,0.0097901915115638
14.593507612754957,0.0099187946762141
14.622234989945415,0.0097842788244031
14.65096236713588,0.0097385745481255
14.679689744326344,0.0103006378556278
14.708417121516804,0.0092523399376204
14.737144498707266,0.0082170535349219
14.76587187589773,0.0061340181198766
14.794599253088192,0.0062885957371001
14.823326630278654,0.0063896485460921
14.852054007469118,0.0064625060138498
14.88078138465958,0.0063660308920536
14.90950876185004,0.0063187389112205
14.938236139040503,0.0063854203927435
14.966963516230969,0.0060169237666539
14.995690893421427,0.0058130500022428
15.024418270611893,0.0059588230974886
15.053145647802356,0.0059945093291072
15.081873024992817,0.0060408428520486
15.11060040218328,0.0057244555878578
15.139327779373742,0.0051480690563182
15.168055156564204,0.0060245509947607
15.196782533754668,0.005824288421018
15.22550991094513,0.0054730227685976
15.254237288135592,0.0054236513718136
15.282964665326055,0.0070962804039911
15.311692042516515,0.0090186305580659
15.34041941970698,0.0084176612963975
15.369146796897445,0.0082414801074593
15.397874174087905,0.0083206687897252
15.426601551278369,0.008545679345592
15.45532892846883,0.0093506142867497
15.484056305659292,0.0092385831780082
15.512783682849754,0.0079336349004861
15.541511060040218,0.0066639848466769
15.57023843723068,0.0065219454063613
15.598965814421142,0.0067509527143981
15.627693191611606,0.0066615514379679
15.656420568802067,0.0067399440381563
15.68514794599253,0.0063583812493777
15.713875323182991,0.006466556668057
15.742602700373457,0.0065620798699534
15.771330077563915,0.0063671910092567
15.80005745475438,0.0060776357166344
15.828784831944844,0.0063036657562092
15.857512209135304,0.0064907444003471
15.886239586325768,0.0057411530454276
15.91496696351623,0.0060470371353754
15.943694340706692,0.0057493090578553
15.972421717897156,0.0058532767849789
16.001149095087616,0.0059870603050703
16.02987647227808,0.0062601164208512
16.058603849468543,0.0080910890213467
16.087331226659003,0.0093462327872993
16.116058603849467,0.0091199773058299
16.14478598103993,0.0142989844489507
16.17351335823039,0.0159572444725902
16.202240735420855,0.0204767753106989
16.23096811261132,0.0206724190155207
16.25969548980178,0.0209638354467941
16.288422866992242,0.018881052808143
16.317150244182706,0.0190215528132077
16.345877621373166,0.0201791824204076
16.37460499856363,0.0140786238359928
16.403332375754093,0.0127148052659071
16.432059752944554,0.0076208957520259
16.460787130135017,0.0086185208612458
16.48951450732548,0.0078671028340112
16.51824188451594,0.0072489603283843
16.546969261706405,0.0065192892610229
16.57569663889687,0.006848309633708
16.60442401608733,0.0050362188144367
16.633151393277792,0.0061226004552464
16.661878770468256,0.0066514746996383
16.690606147658716,0.0065452211930643
16.71933352484918,0.006752876466028
16.748060902039644,0.0066253239556324
16.776788279230104,0.007320316968723
16.805515656420567,0.0077689569230028
16.83424303361103,0.0079318561275385
16.86297041080149,0.0080365589327886
16.891697787991955,0.0081695528566127
16.92042516518242,0.0082883851316831
16.94915254237288,0.008305903541089
16.977879919563343,0.0081704284959188
17.006607296753806,0.0078111034111705
17.035334673944266,0.0071000871439689
17.06406205113473,0.0071045547038072
17.092789428325194,0.0071032885073415
17.121516805515654,0.006858946593825
17.150244182706118,0.0063880131734006
17.17897155989658,0.0065973404368741
17.20769893708704,0.0060669963048311
17.236426314277505,0.0061030730269558
17.26515369146797,0.0063152421348667
17.29388106865843,0.0058106764741299
17.322608445848893,0.0059437412672588
17.351335823039356,0.0062575619591598
17.380063200229817,0.0061450286291336
17.40879057742028,0.006193296204731
17.437517954610744,0.0057449780604795
17.466245331801204,0.0066327869745932
17.494972708991668,0.0077112734070767
17.52370008618213,0.0087535427261808
17.55242746337259,0.0086678695567955
17.581154840563055,0.0085724444727644
17.60988221775352,0.0084488052339245
17.63860959494398,0.0078925181836733
17.667336972134443,0.0091154151320596
17.696064349324907,0.0080750266902493
17.724791726515367,0.0050246805544638
17.75351910370583,0.0064872286923593
17.782246480896294,0.0060774732883385
17.810973858086754,0.0064727752475086
17.839701235277218,0.0066240896307602
17.86842861246768,0.0067101202402141
17.897155989658142,0.00697721492022
17.925883366848606,0.0067885947534168
17.95461074403907,0.0055535987158108
17.98333812122953,0.0070398809738363
18.012065498419993,0.0060537273537797
18.040792875610457,0.0059826592613004
18.069520252800917,0.0058801915608348
18.09824762999138,0.0075864677450798
18.126975007181844,0.0033016226533971
18.155702384372304,0.000735641044929
18.184429761562768,0.0135947255876396
18.213157138753232,0.0075787379053802
18.241884515943692,0.0069682702278835
18.270611893134156,0.0084096086469016
18.29933927032462,0.0082800665267249
18.32806664751508,0.0081297589169579
18.356794024705543,0.0083048417191825
18.385521401896007,0.0086176854575346
18.414248779086467,0.0060880627907426
18.44297615627693,0.0059007215502081
18.47170353346739,0.0068430181181508
18.500430910657855,0.0054306657720056
18.52915828784832,0.0056007654924714
18.557885665038786,0.0061828240111718
18.58661304222924,0.0059761197331626
18.615340419419702,0.0058917972281782
18.64406779661017,0.0060360007801584
18.67279517380063,0.0059237131240222
18.701522550991093,0.0061954516306839
18.730249928181557,0.0061667592514469
18.758977305372017,0.006084719865231
18.78770468256248,0.0059663963975613
18.816432059752945,0.0058487595649728
18.845159436943405,0.0066607061184705
18.87388681413387,0.0085386821604553
18.902614191324332,0.0093157394886886
18.931341568514792,0.0091257037166835
18.960068945705256,0.0092136231207683
18.98879632289572,0.0090469656029536
19.01752370008618,0.0093316623344746
19.046251077276644,0.0094578340064173
19.074978454467107,0.0081665082577405
19.103705831657567,0.006364020517107
19.13243320884803,0.0055240892906439
19.161160586038495,0.0062600869086684
19.189887963228955,0.006192961969535
19.21861534041942,0.0057520487369668
19.24734271760988,0.0057965091749555
19.276070094800343,0.0059001844883721
19.30479747199081,0.0058896458185306
19.33352484918127,0.0059544646798997
19.36225222637173,0.0060267885961978
19.390979603562194,0.0060153830449976
19.419706980752657,0.0058827343783296
19.44843435794312,0.0057233355811497
19.47716173513358,0.0058183264260732
19.505889112324045,0.0064776873381648
19.534616489514505,0.007492977337375
19.56334386670497,0.0083887114032719
19.592071243895433,0.0086306946149419
19.620798621085893,0.0085345277512121
19.649525998276356,0.0084609831525573
19.67825337546682,0.008328699576341
19.70698075265728,0.0081998862083204
19.735708129847744,0.0076055114241416
19.764435507038208,0.0062160926823423
19.793162884228668,0.0052805498629155
19.82189026141913,0.0055625350500632
19.850617638609595,0.0059749589642445
19.879345015800055,0.0060263421391378
19.90807239299052,0.0058443931748915
19.936799770180983,0.0063010622475612
19.965527147371443,0.0063980204472238
19.994254524561907,0.0061671583391084
20.02298190175237,0.006171674405922
20.05170927894283,0.0096428688660698
20.080436656133298,0.012807816135053
20.10916403332376,0.0140833883355472
20.137891410514214,0.0180797369497187
20.16661878770468,0.0217839668443229
20.195346164895145,0.0223550028087152
20.224073542085605,0.0223142094982937
20.25280091927607,0.0245858563112451
20.281528296466533,0.0253700575942756
20.310255673656993,0.0216665250200604
20.338983050847457,0.0216297952040997
20.36771042803792,0.0211703262429656
20.39643780522838,0.0182185408259888
20.425165182418844,0.0165214406779243
20.453892559609308,0.0122376020559404
20.482619936799768,0.0129171066362605
20.511347313990232,0.0120228509560209
20.540074691180696,0.0119321843685079
20.568802068371156,0.0111949569130507
20.59752944556162,0.0108211114165947
20.62625682275208,0.0108677344955432
20.654984199942543,0.0109151893778837
20.683711577133007,0.0114693991397911
20.712438954323467,0.010757036115247
20.74116633151393,0.0092750710488855
20.76989370870439,0.0099545286423695
20.798621085894855,0.0088752473263567
20.82734846308532,0.0090776006988032
20.856075840275786,0.009116336423185
20.88480321746624,0.0103788451490164
20.913530594656702,0.0111576521321482
20.94225797184717,0.0113667732185542
20.97098534903763,0.0102923550779256
20.999712726228093,0.0094471943398633
21.028440103418557,0.0098764729652496
21.057167480609017,0.0109965665321732
21.08589485779948,0.0078079011407147
21.114622234989945,0.0077215833946295
21.143349612180405,0.0059132277022442
21.17207698937087,0.0057817784435537
21.200804366561332,0.0060363803842369
21.229531743751792,0.0056923184344698
21.258259120942256,0.0057941002187006
21.28698649813272,0.0055602365308559
21.31571387532318,0.0051637007225944
21.344441252513644,0.005964744490653
21.373168629704107,0.0058899537631851
21.401896006894567,0.0058542267232671
21.43062338408503,0.0058584574750189
21.459350761275495,0.0058545322938703
21.488078138465955,0.0061841681250464
21.51680551565642,0.0059523176825997
21.54553289284688,0.0050051756047664
21.574260270037342,0.0114886348725016
21.60298764722781,0.0094415507836606
21.63171502441827,0.0093107740671411
21.66044240160873,0.0091760644592884
21.689169778799194,0.0092441780918863
21.717897155989657,0.0094060227798879
21.74662453318012,0.009044535700017
21.77535191037058,0.0073898257726334
21.804079287561045,0.006363764552536
21.832806664751505,0.0058996341346177
21.86153404194197,0.0056444945293209
21.890261419132433,0.0057650734906228
21.918988796322893,0.0059255590418353
21.947716173513356,0.0059007928702477
21.97644355070382,0.0059703256957511
22.00517092789428,0.005872767435586
22.033898305084744,0.0057360958536586
22.062625682275208,0.0057746138485957
22.091353059465668,0.0056996749563369
22.12008043665613,0.0057236321416883
22.148807813846595,0.0062120373372396
22.177535191037055,0.0052386700871529
22.20626256822752,0.0055614020863134
22.234989945417983,0.0056069519759462
22.263717322608443,0.0079127954175599
22.292444699798907,0.0089645191980957
22.32117207698937,0.0088101097057187
22.34989945417983,0.0088027840950799
22.378626831370298,0.0092103658182987
22.40735420856076,0.0091341244196853
22.436081585751214,0.0090007053272346
22.46480896294168,0.0084518972539254
22.493536340132145,0.0070945162217312
22.522263717322605,0.0061383190541339
22.55099109451307,0.0055687703312243
22.579718471703533,0.0058427991051781
22.608445848893993,0.0061285610225018
22.637173226084457,0.006003199473664
22.66590060327492,0.0058661591076299
22.69462798046538,0.0058029419342338
22.723355357655844,0.0057954016144301
22.752082734846308,0.0057191541178287
22.780810112036768,0.0056515416159856
22.809537489227232,0.0058024222172193
22.838264866417695,0.0057048181368147
22.866992243608156,0.0053866800489381
22.89571962079862,0.0066750678946651
22.924446997989083,0.0053439437821282
22.953174375179543,0.0019300352451225
22.981901752370007,0.0136377178998051
23.01062912956047,0.0092229355751567
23.03935650675093,0.0086483033915555
23.06808388394139,0.00930588309377
23.096811261131855,0.0092156565002287
23.12553863832232,0.0086963063027872
23.154266015512786,0.0099427253420834
23.18299339270325,0.0102009785060639
23.211720769893702,0.0070574595993213
23.24044814708417,0.0045481594404768
23.269175524274633,0.0055704945676081
23.297902901465093,0.0063370525360178
23.326630278655557,0.0055453243010808
23.35535765584602,0.0052660895252866
23.38408503303648,0.0054226590874243
23.412812410226945,0.0054191621051275
23.44153978741741,0.0052709112896069
23.47026716460787,0.005638469833742
23.498994541798332,0.0055961677915894
23.527721918988796,0.0058949421836823
23.556449296179256,0.0058720670411269
23.58517667336972,0.0059384211859879
23.613904050560183,0.00620390102397
23.642631427750644,0.0062611345358471
23.671358804941107,0.0062363985277767
23.70008618213157,0.0074873786505342
23.72881355932203,0.0082365142466267
23.757540936512495,0.0079898129511149
23.78626831370296,0.007864028835397
23.81499569089342,0.0082892850086803
23.84372306808388,0.0079305414679015
23.872450445274342,0.0079490624365268
23.90117782246481,0.006097460281671
23.92990519965527,0.0059900331241715
23.958632576845737,0.0057501917770146
23.987359954036194,0.0061425327323149
24.016087331226657,0.0082731583422604
24.04481470841712,0.0122171209418597
24.07354208560758,0.013099742619089
24.102269462798045,0.0122693043756445
24.13099683998851,0.0206050333436161
24.15972421717897,0.0198300887597115
24.188451594369432,0.0215491604505284
24.217178971559896,0.023627916199782
24.245906348750356,0.0233719515371834
24.27463372594082,0.02320152350081
24.303361103131284,0.022478960813505
24.332088480321744,0.0189732637746443
24.360815857512208,0.0169338859092974
24.38954323470267,0.0182763513534812
24.41827061189313,0.00546486335238
24.446997989083595,0.0111432058319897
24.47572536627406,0.0115416572242882
24.50445274346452,0.0101153510626993
24.533180120654983,0.0105430006189768
24.561907497845446,0.0106459359389358
24.590634875035907,0.0106478563441266
24.61936225222637,0.0104953531510849
24.64808962941683,0.0091321527440857
24.676817006607298,0.0084798404353327
24.70554438379776,0.0083819958590947
24.73427176098822,0.0081675319181882
24.76299913817868,0.0080255924119433
24.791726515369145,0.0074379863039118
24.82045389255961,0.0076156565115696
24.84918126975007,0.00732724699009
24.877908646940533,0.0066319567273848
24.906636024130997,0.0059480725708368
24.935363401321457,0.0058775698213788
24.96409077851192,0.0062171806750152
24.992818155702384,0.0061214490355923
25.021545532892844,0.0057320838633313
25.050272910083308,0.0062658093294863
25.07900028727377,0.0063789947662223
25.10772766446423,0.0061103430195994
25.136455041654695,0.0067345871662283
25.16518241884516,0.008010957656158
25.19390979603562,0.0088286329437581
25.222637173226083,0.0085969673629403
25.251364550416547,0.0089438912326063
25.280091927607007,0.0088034308533252
25.30881930479747,0.0094081914746332
25.337546681987934,0.0085086829013166
25.36627405917839,0.0118657729152574
25.395001436368855,0.007850296952173683
25.42372881355932,0.0058386283933124
25.452456190749785,0.0068818927851827
25.48118356794025,0.0045986132433398
25.50991094513071,0.0050560004367372
25.53863832232117,0.0053793673781625
25.567365699511633,0.005385735445903
25.596093076702097,0.0054958464681696
25.624820453892557,0.0054958930442874
25.65354783108302,0.0054807577730899
25.682275208273484,0.0060434591941512
25.711002585463945,0.0058938330641134
25.73972996265441,0.0057871131457237
25.768457339844872,0.0059899794517932
25.797184717035332,0.0065754141956266
25.825912094225796,0.005504007320886
25.85463947141626,0.0058921788661396
25.88336684860672,0.0058439867562954
25.912094225797183,0.0056181147899937
25.940821602987647,0.0059506755756749
25.969548980178107,0.003824668071928
25.99827635736857,0.0069457159026466
26.027003734559035,0.0099678422630616
26.055731111749495,0.0077011659176401
26.08445848893996,0.0078987776443705
26.113185866130426,0.0078056762426151
26.14191324332088,0.0078835249374093
26.170640620511342,0.0074428541537695
26.19936799770181,0.0075615239165971
26.22809537489227,0.0057994035027993
26.256822752082737,0.0052876059869936
26.285550129273197,0.0059762426133045
26.314277506463657,0.005633915681234
26.34300488365412,0.0063008382569435
26.371732260844585,0.0059782229576571
26.400459638035045,0.0056874911297709
26.42918701522551,0.0056207179038718
26.457914392415972,0.0057422959296425
26.486641769606432,0.0058726558770474
26.515369146796896,0.0055222080666263
26.544096523987356,0.0053365020538008
26.57282390117782,0.006133694224926
26.601551278368284,0.0049641926749047
26.630278655558744,0.0058407694338432
26.659006032749208,0.0043537642625394
26.68773340993967,0.0051062473856842
26.71646078713013,0.0061093118722609
26.745188164320595,0.0048712467138764
26.77391554151106,0.0024601533235878
26.80264291870152,0.0126516519436398
26.831370295891983,0.0092949766878695
26.860097673082446,0.0075220099777435
26.888825050272903,0.0082253885866981
26.91755242746337,0.0081424412849498
26.94627980465383,0.008102900932906
26.975007181844298,0.0069578236522
27.00373455903476,0.0078717393138882
27.03246193622522,0.0053179409675578
27.06118931341568,0.0043548039875358
27.089916690606145,0.005360695094385
27.11864406779661,0.0055779010058046
27.14737144498707,0.0057253410193572
27.176098822177533,0.0055193123310666
27.204826199367997,0.0053934822167372
27.233553576558457,0.0060648041310546
27.26228095374892,0.0060220391900889
27.291008330939384,0.0060030940618698
27.319735708129844,0.0061640344342854
27.348463085320308,0.0059864810197871
27.37719046251077,0.0062526117662474
27.40591783970123,0.0063488142616056
27.434645216891695,0.0044761360162072
27.46337259408216,0.0070603641236505
27.49209997127262,0.0060156689871592
27.520827348463083,0.0057001891917776
27.549554725653547,0.0056098453681626
27.578282102844007,0.0068124146570531
27.60700948003447,0.0074085662546817
27.635736857224934,0.008377466399373
27.66446423441539,0.0087155988041903
27.693191611605855,0.0079030599413045
27.72191898879632,0.0077004674569982
27.750646365986785,0.0082116754609593
27.77937374317725,0.0080913416162995
27.80810112036771,0.0074173779154636
27.83682849755817,0.0063765727644896
27.865555874748633,0.005914498664051
27.894283251939097,0.0056750719693384
27.923010629129557,0.002278757290075
27.95173800632002,0.0034846319417872
27.980465383510484,0.010457832056948349
28.009192760700945,0.0123968786927023
28.03792013789141,0.0141795918634453
28.066647515081872,0.0247320605843419
28.095374892272332,0.0233989949564795
28.124102269462796,0.0237117078953363
28.15282964665326,0.0247989368903714
28.18155702384372,0.0259357557887252
28.210284401034183,0.024558348503553
28.239011778224647,0.0207243222669794
28.267739155415107,0.0207919030205365
28.29646653260557,0.0137293066249866
28.325193909796035,0.0143786878787659
28.353921286986495,0.0142975118437562
28.38264866417696,0.0129202440711407
28.411376041367426,0.0121012035121154
28.44010341855788,0.0106360224078327
28.468830795748342,0.0113647487049321
28.49755817293881,0.0147807977038353
28.52628555012927,0.012749605531392
28.555012927319737,0.0133039369075043
28.583740304510197,0.0136010723300651
28.612467681700657,0.013269018513172
28.64119505889112,0.0123523083123734
28.669922436081585,0.0118498961146166
28.698649813272045,0.0114383777644995
28.72737719046251,0.0101164518421779
28.756104567652972,0.0098766756834922
28.784831944843432,0.0096634958011455
28.813559322033896,0.0086406018281991
28.84228669922436,0.0104758600882351
28.87101407641482,0.0053967798176894
28.899741453605284,0.0082986170896068
28.928468830795747,0.0090078038081011
28.957196207986208,0.0070549461862403
28.98592358517667,0.0062874795849038
29.014650962367135,0.007443605271228
29.043378339557595,0.0071375693342234
29.07210571674806,0.0070237577664927
29.10083309393852,0.0070054292382327
29.129560471128983,0.007120341476433
29.158287848319446,0.0070754942095912
29.18701522550991,0.0070862577012386
29.21574260270037,0.007089411098918
29.24446997989083,0.0067091629601555
29.273197357081298,0.0063982490594981
29.30192473427176,0.0061070250932209
29.33065211146222,0.0072532038526849
29.359379488652685,0.0083876703354483
29.388106865843145,0.0079963734223118
29.41683424303361,0.0082453986006451
29.445561620224073,0.0085375748631559
29.474288997414533,0.0084279376771516
29.503016374604996,0.0082600664347787
29.53174375179546,0.0083887159365194
29.56047112898592,0.0070064899228807
29.589198506176384,0.0060892807883041
29.617925883366848,0.0061325803830516
29.646653260557308,0.0059966457724627
29.67538063774777,0.0058723163304513
29.704108014938235,0.006076648580512
29.732835392128695,0.0062243959662704
29.76156276931916,0.0061290099042655
29.790290146509623,0.0061562206794349
29.819017523700083,0.0064057480608217
29.847744900890547,0.0062588427996011
29.87647227808101,0.0063495970675321
29.90519965527147,0.0064812528739877
29.933927032461938,0.0063496044165192
29.9626544096524,0.0063210110637045
29.991381786842854,0.0061210073047692
30.02010916403332,0.006008808373588
30.048836541223785,0.0059862436987506
30.07756391841425,0.0061171951371982
30.10629129560471,0.0069007950654757
30.135018672795173,0.0092898584689605
30.163746049985633,0.0090307322069733
30.192473427176097,0.0088999849015843
30.22120080436656,0.0089105120150966
30.24992818155702,0.0091884201933817
30.278655558747484,0.0083349581744362
30.307382935937948,0.0090564499094253
30.336110313128408,0.0090919351623675
30.364837690318872,0.0047788336897417
30.393565067509336,0.005593058297687
30.422292444699796,0.005672496479803
30.45101982189026,0.0054607739343931
30.479747199080723,0.005324364489453
30.508474576271183,0.0055037325556812
30.537201953461647,0.0055316250550289
30.56592933065211,0.0058517808641141
30.59465670784257,0.0062311093003279
30.623384085033035,0.0062470699551919
30.6521114622235,0.0061989461324542
30.68083883941396,0.0061880287823702
30.709566216604426,0.0060449800789495
30.73829359379489,0.0062435606860762
30.767020970985342,0.0064461809402634
30.79574834817581,0.0062496008338497
30.824475725366273,0.005937126277035
30.853203102556733,0.0057543866785452
30.881930479747197,0.0057222999587282
30.91065785693766,0.0058293897508899
30.93938523412812,0.0073963241596774
30.968112611318585,0.0077839911299571
30.99683998850905,0.0081353243518779
31.02556736569951,0.0081793786031573
31.054294742889972,0.0085029363762927
31.083022120080436,0.0085425455274754
31.111749497270896,0.0087304115908628
31.14047687446136,0.0089176407835781
31.169204251651824,0.0079643720551921
31.197931628842284,0.0066784353993647
31.226659006032747,0.0069653900128086
31.25538638322321,0.0059619945923617
31.28411376041367,0.0063448905980906
31.312841137604135,0.0062134495935929
31.3415685147946,0.0061770599790879
31.37029589198506,0.0061542954729598
31.39902326917552,0.0062880417679895
31.427750646365983,0.0060332359738937
31.456478023556446,0.0057014510465572
31.48520540074691,0.0065686742198023
31.513932777937377,0.0060587845994018
31.54266015512783,0.0058090439783162
31.571387532318298,0.0058955531887297
31.60011490950876,0.0058873916786956
31.62884228669922,0.0058382467605349
31.657569663889685,0.0060572750837367
31.68629704108015,0.0058499453540417
31.71502441827061,0.0055746205849396
31.743751795461073,0.006019932064183
31.772479172651536,0.0066749905124239
31.801206549841996,0.0074466498519086
31.82993392703246,0.0083164864798563
31.858661304222924,0.0087788714961795
31.887388681413384,0.0084567167505863
31.916116058603848,0.0084880470045614
31.94484343579431,0.0083925859972638
31.97357081298477,0.008200636211006
32.00229819017523,0.0089014753270874
32.031025567365695,0.0081391795387994
32.05975294455616,0.0104680970783402
32.08848032174662,0.015373102653987
32.11720769893709,0.0168829680922402
32.14593507612755,0.0182689479829893
32.17466245331801,0.0223612521393747
32.20338983050847,0.0264778080885704
32.232117207698934,0.0267333761149616
32.2608445848894,0.025401885682522
32.28957196207986,0.0249878472926872
32.318299339270325,0.0231825823507982
32.34702671646078,0.0211000662353218
32.375754093651246,0.0229103119167368
32.40448147084171,0.0211464634122574
32.43320884803217,0.0084325068408406
32.46193622522264,0.0097320234206191
32.4906636024131,0.0105424052582515
32.51939097960356,0.0092966067720936
32.54811835679402,0.0096581390391962
32.576845733984484,0.0099722172488251
32.60557311117495,0.0074526745968438
32.63430048836541,0.0102376613471763
32.663027865555875,0.0115608088237591
32.69175524274633,0.0093491215686968
32.720482619936796,0.0104134830619765
32.74920999712726,0.0104980204514518
32.77793737431772,0.0102434400348437
32.80666475150819,0.010385818310337
32.83539212869865,0.0093208758465391
32.86411950588911,0.0114556169312871
32.89284688307957,0.0126045917359274
32.921574260270035,0.0054240272306777
32.9503016374605,0.0073594268976273
32.97902901465096,0.0070532574509722
33.007756391841426,0.0068939318548576
33.03648376903188,0.0069982087896189
33.065211146222346,0.0071705233553845
33.09393852341281,0.0067318393407533
33.12266590060327,0.0067920672911559
33.15139327779374,0.0068550820284674
33.1801206549842,0.0067905809098676
33.20884803217466,0.0073944544431957
33.23757540936512,0.00708844343918
33.266302786555585,0.0070306277991571
33.29503016374605,0.0075791295387176
33.32375754093651,0.0075298072054548
33.352484918126976,0.0070921623187903
33.38121229531743,0.0073153492603389
33.409939672507896,0.0073719209698152
33.43866704969836,0.0096969179462673
33.46739442688882,0.0091582817340594
33.49612180407929,0.0098451055242205
33.52484918126975,0.009133230373604
33.55357655846021,0.0092188961243603
33.58230393565067,0.0091175013953909
33.611031312841135,0.0091302028043526
33.6397586900316,0.0090174500900481
33.66848606722206,0.0081108854079538
33.697213444412526,0.0058350932918706
33.72594082160298,0.0063353923748565
33.754668198793446,0.0066741332521293
33.78339557598391,0.0064830645894257
33.812122953174374,0.006760420574449
33.84085033036484,0.0068411624174795
33.8695777075553,0.0065325785826272
33.89830508474576,0.0064137301593084
33.92703246193622,0.0063962641391095
33.955759839126685,0.006302544619537
33.98448721631715,0.0060757074656632
34.01321459350761,0.0061768363909949
34.041941970698076,0.0058914428158773
34.07066934788853,0.0059642150735681
34.099396725078996,0.0062714423120932
34.12812410226946,0.0056512077286373
34.156851479459924,0.0055462456379842
34.18557885665039,0.0057711206958084
34.21430623384085,0.0062466026728401
34.24303361103131,0.0060536417201279
34.27176098822177,0.0072354152433365
34.300488365412235,0.0090844115575386
34.3292157426027,0.0092600491402532
34.35794311979316,0.0097159197860901
34.386670496983626,0.0095795001960177
34.41539787417408,0.0094855508104532
34.44412525136455,0.0093911746212546
34.47285262855501,0.0084413631592397
34.501580005745474,0.008170173627727
34.53030738293594,0.0071938845587943
34.5590347601264,0.0055379431766783
34.58776213731686,0.0062285500667733
34.61648951450732,0.0064020278459869
34.645216891697785,0.0060260421669699
34.67394426888825,0.0063514440292396
34.70267164607871,0.0067317211943168
34.73139902326918,0.0064163342405816
34.76012640045963,0.0062409991732599
34.7888537776501,0.006447571417269
34.81758115484056,0.0060785363806656
34.846308532031024,0.0060117602604445
34.87503590922149,0.0064167247160257
34.90376328641195,0.0058585858726774
34.93249066360241,0.0062383894798247
34.96121804079287,0.005361955057665
34.989945417983336,0.0056959665098724
35.0186727951738,0.0072896033785224
35.04740017236426,0.0039319446620476
35.07612754955473,0.0007826556403816
35.10485492674518,0.0123997312352495
35.13358230393565,0.0079411104628233
35.16230968112611,0.0076902850315938
35.191037058316574,0.0087696862895164
35.21976443550704,0.0083462969995569
35.2484918126975,0.0083837720274958
35.27721918988796,0.008444003239584
35.30594656707842,0.0069464968183423
35.334673944268886,0.005762540489002
35.36340132145935,0.0057837019356844
35.39212869864981,0.0056159960229381
35.42085607584027,0.0060120096563528
35.44958345303073,0.0062539218724657
35.4783108302212,0.0062446732203628
35.50703820741166,0.005970373165382
35.535765584602125,0.0059651420431102
35.56449296179259,0.006051465378943
35.593220338983045,0.0060055332079763
35.62194771617351,0.0059528160856876
35.65067509336397,0.0060482976538443
35.679402470554436,0.0059709354850857
35.7081298477449,0.005914215624016
35.73685722493536,0.0062084109788713
35.76558460212582,0.0065827187479189
35.794311979316284,0.0060754999044213
35.82303935650675,0.0062342729647537
35.85176673369721,0.0079772703459019
35.880494110887675,0.0080260405105161
35.90922148807814,0.0084638632293786
35.937948865268595,0.0083045882557974
35.96667624245906,0.0082602031387081
35.99540361964952,0.0086929097723949
36.024130996839986,0.0095660529286319
36.05285837403045,0.0104949563866947
36.08158575122091,0.0085639101953134
36.11031312841137,0.0107205460370694
36.139040505601834,0.0150805616108824
36.1677678827923,0.019881722429914
36.19649525998276,0.0210041858428179
36.225222637173225,0.0222225067171115
36.25395001436369,0.022354854380235
36.282677391554145,0.0226338289581662
36.31140476874461,0.0217217954743596
36.34013214593507,0.0196098605759425
36.368859523125536,0.0182156225098939
36.397586900316,0.0131125703798614
36.426314277506464,0.0115199171809025
36.45504165469692,0.0102486181204452
36.483769031887384,0.0075758326531843
36.51249640907785,0.0068463791688311
36.54122378626831,0.009598521460836
36.569951163458775,0.0086296614993752
36.59867854064924,0.0079442133044976
36.627405917839695,0.0084687756981332
36.65613329503016,0.0093309456508884
36.68486067222062,0.0107883960020291
36.713588049411086,0.0108389417232339
36.74231542660155,0.010283037131269
36.771042803792014,0.0098328579216216
36.79977018098247,0.0097905552089277
36.828497558172934,0.0099231107154203
36.8572249353634,0.0095791385726633
36.88595231255386,0.0083794999165358
36.914679689744325,0.0068346038211349
36.94340706693479,0.0064951594601229
36.972134444125246,0.0066420512483603
37.00086182131571,0.0066914361655576
37.02958919850617,0.0064018411464679
37.05831657569664,0.0061410919426597
37.0870439528871,0.0062635129091762
37.11577133007757,0.0059971341797116
37.14449870726802,0.0057534206036488
37.17322608445848,0.0059529808500401
37.20195346164895,0.0052437079156494
37.23068083883941,0.0064934972894839
37.259408216029875,0.0062933569329445
37.28813559322034,0.0062733756985461
37.3168629704108,0.0064209710276451
37.34559034760126,0.0061458769441766
37.37431772479172,0.006809927297146
37.40304510198219,0.0068380026708526
37.43177247917265,0.00838448376002
37.460499856363114,0.0083023967059943
37.48922723355357,0.0085031233866587
37.517954610744034,0.0086704151463574
37.5466819879345,0.0084089985074882
37.57540936512496,0.0082061416366493
37.604136742315426,0.0078995278123459
37.63286411950589,0.0074051900317597
37.661591496696346,0.0078427881994099
37.69031887388681,0.0062402348017349
37.71904625107727,0.0063697966994285
37.74777362826774,0.0062507313644614
37.7765010054582,0.0066076974934167
37.805228382648664,0.006447075942079
37.83395575983912,0.0066013696541799
37.862683137029585,0.0069707510905095
37.89141051422005,0.0061909385126409
37.92013789141051,0.0062424504069734
37.948865268600976,0.0060670219486722
37.97759264579144,0.0064751215290217
38.006320022981896,0.0068886524207725
38.03504740017236,0.0063557812202362
38.06377477736282,0.0070652210427463
38.09250215455329,0.0059901001002084
38.12122953174375,0.0060452547922248
38.149956908934215,0.0055628796015583
38.17868428612467,0.0054204497349506
38.207411663315135,0.0053399943115835
38.2361390405056,0.0057667844289529
38.26486641769606,0.0069579139504197
38.293593794886526,0.0078471164220168
38.32232117207699,0.0075715370320902
38.351048549267446,0.0070764862727302
38.37977592645791,0.0074838498585949
38.408503303648374,0.0075960044170103
38.43723068083884,0.0078553043044543
38.4659580580293,0.0078548127192327
38.494685435219765,0.0069044669257717
38.52341281241022,0.0061965690654229
38.552140189600685,0.0058026896179561
38.58086756679115,0.0060561651768798
38.60959494398161,0.006304962484835
38.63832232117208,0.0063004869792669
38.66704969836254,0.0061555705699694
38.69577707555299,0.0060325134446508
38.72450445274346,0.0057088967157563
38.75323182993392,0.0063546531772841
38.78195920712439,0.0061651710532755
38.81068658431485,0.0060550116747331
38.839413961505315,0.0060042283393968
38.86814133869577,0.0063326354206289
38.896868715886235,0.0058708799484807
38.9255960930767,0.0064700724397905
38.95432347026716,0.0062973257817206
38.983050847457626,0.0059683535405777
39.01177822464809,0.005868909522467
39.04050560183855,0.0062376691041554
39.06923297902901,0.0060072950545941
39.097960356219474,0.0056704837179849
39.12668773340994,0.0100687690296303
39.1554151106004,0.0083996561771011
39.184142487790865,0.0085638462921883
39.21286986498132,0.0088945118222584
39.241597242171785,0.00885765595042
39.27032461936225,0.0091550180680848
39.29905199655271,0.010053047786629
39.32777937374318,0.0093846982207574
39.35650675093364,0.0065216900723589
39.3852341281241,0.0071365196165388
39.41396150531456,0.0065479762538955
39.442688882505024,0.0067858166119023
39.47141625969549,0.0063793566388121
39.50014363688595,0.0056437493916954
39.528871014076415,0.0060390301170329
39.55759839126687,0.006133217031844
39.586325768457336,0.0060443671405552
39.6150531456478,0.0061900919597889
39.64378052283826,0.0062171974985634
39.67250790002873,0.0062823498221965
39.70123527721919,0.0064378564511825
39.72996265440965,0.0064103626550933
39.75869003160011,0.0063358734680986
39.787417408790574,0.0063093076251275
39.81614478598104,0.006338981740822
39.8448721631715,0.0063427529910319
39.873599540361965,0.0062182125016694
39.90232691755242,0.0062695757589427
39.931054294742886,0.0059668983890682
39.95978167193335,0.0060629534890702
39.98850904912381,0.0072921097095224
40.01723642631428,0.0080024685850278
40.04596380350474,0.0106007352782669
40.0746911806952,0.0130916348435584
40.10341855788566,0.0150399611795802
40.132145935076124,0.0185143501047895
40.16087331226659,0.0188865733683003
40.18960068945705,0.0172997705098082
40.21832806664752,0.0245358960340278
40.24705544383797,0.0245880812414058
40.27578282102843,0.0277555124276456
40.3045101982189,0.026630774766532
40.33323757540936,0.0262354785197225
40.36196495259983,0.0250174726298589
40.39069232979029,0.0235800796476969
40.41941970698075,0.0239205602196333
40.44814708417121,0.0190177058079967
40.476874461361675,0.0178847031878741
40.50560183855214,0.0202257215787478
40.5343292157426,0.0154745569803081
40.563056592933066,0.0074308866958763
40.59178397012352,0.0089375688496907
40.620511347313986,0.0086197973648305
40.64923872450445,0.0078166035348667
40.67796610169491,0.0081315093779409
40.70669347888538,0.0076950529177766
40.73542085607584,0.0076956753534872
40.7641482332663,0.0080483389564783
40.79287561045676,0.0031538470766633
40.821602987647225,0.0088720721453511
40.85033036483769,0.0115078270973819
40.87905774202815,0.0075933630921601
40.907785119218616,0.0087604837893382
40.93651249640907,0.0089452535992054
40.965239873599536,0.0092652572710598
40.99396725079,0.0093906321698536
41.022694627980464,0.0083924021653354
41.05142200517093,0.007258750194839
41.08014938236139,0.0062969877494384
41.10887675955185,0.0065880253382486
41.13760413674231,0.0064515506707751
41.166331513932775,0.0062518763627672
41.19505889112324,0.0060643374996805
41.2237862683137,0.005981414063913
41.25251364550416,0.0062212411064432
41.28124102269462,0.0064600935396003
41.309968399885086,0.0065309619536081
41.33869577707555,0.0059210917395791
41.367423154266014,0.0061087068685928
41.39615053145648,0.0059117829202109
41.424877908646934,0.0059911859830656
41.4536052858374,0.007033525985219
41.48233266302786,0.0048924263035971
41.511060040218325,0.0057834551591799
41.53978741740879,0.0054547335225639
41.56851479459925,0.0055057645229757
41.59724217178971,0.0052357642365677
41.62596954898017,0.0051167761022983
41.65469692617064,0.0053928029497794
41.6834243033611,0.0081324227851431
41.71215168055157,0.0075938910171597
41.74087905774203,0.0075952540748554
41.76960643493248,0.0075944347835434
41.79833381212295,0.0077748578445521
41.82706118931341,0.0076985781399475
41.855788566503875,0.0078052729434741
41.88451594369434,0.0068802513303805
41.9132433208848,0.0063344779448065
41.94197069807526,0.0060495400547703
41.97069807526572,0.0060222272596355
41.99942545245619,0.0060106849677403
42.02815282964665,0.005801894740883
42.056880206837114,0.0058879557899631
42.08560758402758,0.0060786811590808
42.114334961218034,0.0059210389278504
42.1430623384085,0.0053559437475023
42.17178971559896,0.0055992937067509
42.200517092789426,0.0055402750405241
42.22924446997989,0.0056459683115949
42.25797184717035,0.0058185842044325
42.28669922436081,0.0058919443780959
42.31542660155127,0.0061006732056423
42.34415397874174,0.0061582786770055
42.3728813559322,0.0059608793995714
42.401608733122664,0.0059884292709611
42.43033611031313,0.0052672754252766
42.459063487503585,0.0071753310027402
42.48779086469405,0.0064123659855234
42.51651824188451,0.0090419270538921
42.545245619074976,0.007744916012299
42.57397299626544,0.0077523538720942
42.6027003734559,0.0080298472487108
42.63142775064636,0.0080921167792373
42.66015512783682,0.0074971532605416
42.68888250502729,0.0066258635341374
42.71760988221775,0.0061684018266484
42.746337259408214,0.0057849889020464
42.77506463659868,0.0057796035152641
42.803792013789135,0.0055867090243761
42.8325193909796,0.0052422689365316
42.86124676817006,0.0051332946756375
42.889974145360526,0.0054438282055582
42.91870152255099,0.0057741353367053
42.94742889974145,0.0056925601521517
42.97615627693191,0.0056451623393594
43.004883654122374,0.0058307237922923
43.03361103131284,0.0058835247620151
43.0623384085033,0.0058492962369165
43.091065785693765,0.0058509990000258
43.11979316288423,0.0057335334028926
43.148520540074685,0.0056330876989274
43.17724791726515,0.0058340959417129
43.20597529445561,0.0049774555651955
43.23470267164608,0.0053715354125022
43.26343004883654,0.0085486972784338
43.292157426027,0.0074873221063307
43.32088480321746,0.0073883068387094
43.34961218040792,0.0076915660235901
43.37833955759839,0.007602931368694
43.40706693478885,0.0079036731514035
43.435794311979315,0.0075439453121932
43.46452168916978,0.0065834107755878
43.493249066360235,0.0067663833320366
43.5219764435507,0.0054123972192492
43.55070382074116,0.0058848811297251
43.579431197931626,0.0058960747890021
43.60815857512209,0.0059875226527205
43.636885952312554,0.0059970469851145
43.66561332950301,0.0059369983875025
43.694340706693474,0.0060168874067313
43.72306808388394,0.0062510595750297
43.7517954610744,0.0062591177858921
43.780522838264865,0.006273503713189
43.80925021545533,0.006443929129177
43.837977592645785,0.006270762812501
43.86670496983625,0.0060679495609736
43.89543234702671,0.0059231940139604
43.924159724217176,0.0059476309262351
43.95288710140764,0.0065586810886966
43.981614478598104,0.0060129258156305
44.01034185578856,0.0067186599236704
44.039069232979024,0.0063942690003183
44.06779661016949,0.0065782351003951
44.09652398735995,0.0112540070981004
44.125251364550415,0.0131104760451317
44.15397874174088,0.0119132277583962
44.182706118931335,0.0223566827750587
44.2114334961218,0.019516573664202
44.24016087331226,0.0195362213105251
44.26888825050273,0.0216431695526452
44.29761562769319,0.0216306313960389
44.326343004883654,0.0187903220006713
44.35507038207411,0.0175574718535553
44.383797759264574,0.0160771219375836
44.41252513645504,0.0137488194563682
44.4412525136455,0.0105866650890209
44.469979890835965,0.0097317382816055
44.49870726802643,0.010089201116477
44.527434645216886,0.0100406809398759
44.55616202240735,0.0094761583176475
44.58488939959781,0.0086329020846693
44.61361677678828,0.0087686330930775
44.64234415397874,0.0083191094959373
44.6710715311692,0.007767172016442
44.69979890835966,0.007127323931412
44.72852628555013,0.0069878789352919
44.75725366274059,0.00757469945966
44.78598103993105,0.0077282934320824
44.81470841712152,0.0076228632157983
44.84343579431198,0.0075882972247616
44.87216317150243,0.0079473786882929
44.9008905486929,0.0081198638429956
44.92961792588336,0.0085522946495971
44.95834530307383,0.009659252358653
44.98707268026429,0.0093888983313661
45.015800057454754,0.0096188992618492
45.04452743464521,0.0095289419534503
45.073254811835675,0.0074247514799644
45.10198218902614,0.0124032048377432
45.1307095662166,0.0069219164612554
45.159436943407066,0.0036873983128238
45.18816432059753,0.0086690219183522
45.216891697787986,0.0069523955110304
45.24561907497845,0.0065817065755538
45.27434645216891,0.0062348522092599
45.30307382935938,0.006219746095922
45.33180120654984,0.0063957321441053
45.360528583740304,0.0064353263313955
45.38925596093076,0.0063940377131395
45.417983338121225,0.0064738381665295
45.44671071531169,0.006657166416404
45.47543809250215,0.0067901388807078
45.504165469692616,0.0065852331172986
45.53289284688308,0.0065279111072014
45.561620224073536,0.0068036933249467
45.590347601264,0.006179059057474
45.619074978454464,0.0061160458745656
45.64780235564493,0.0050770461108134
45.67652973283539,0.0066759533253174
45.705257110025855,0.0083497426903512
45.73398448721631,0.0088002849284248
45.762711864406775,0.0087831296163598
45.79143924159724,0.0087942296088557
45.8201666187877,0.0089462674210946
45.848893995978166,0.0089500751897795
45.87762137316863,0.0088791047614463
45.906348750359086,0.0088382938320252
45.93507612754955,0.0077189777685424
45.963803504740014,0.005835200799645
45.99253088193048,0.0057932927429809
46.02125825912094,0.0058704967249466
46.049985636311405,0.0058999956413135
46.07871301350186,0.0060650723834517
46.107440390692325,0.0060624711837206
46.13616776788279,0.0062008003490069
46.16489514507325,0.0062077581848958
46.19362252226371,0.0060285916381346
46.22234989945418,0.0057593682784941
46.25107727664464,0.0055501696675409
46.2798046538351,0.005951617971093
46.30853203102557,0.0057993253225786
46.33725940821603,0.005677032994135
46.36598678540649,0.0057560623418269
46.394714162596955,0.0058019013375859
46.42344153978741,0.0056968012778554
46.452168916977875,0.0057114333402495
46.48089629416834,0.0063699016007627
46.5096236713588,0.0091266763846901
46.538351048549266,0.0098026204675647
46.56707842573973,0.0074143114246919
46.59580580293019,0.0087715586470418
46.62453318012065,0.0087583306210738
46.653260557311114,0.0087127350836981
46.68198793450158,0.008916427639658
46.71071531169204,0.0085411810512235
46.739442688882505,0.0056824519262301
46.76817006607296,0.0061762813152475
46.796897443263425,0.0066784023852799
46.82562482045389,0.0062415873320961
46.85435219764435,0.0061511028874313
46.88307957483482,0.0060512277138433
46.91180695202528,0.0059657622221777
46.94053432921574,0.0059475342443656
46.9692617064062,0.0058489109881987
46.997989083596664,0.0059028490469722
47.02671646078713,0.0054211340852084
47.05544383797759,0.0056800783900498
47.08417121516805,0.0066814939677798
47.11289859235851,0.0057537430905076
47.141625969548976,0.0058562581241633
47.17035334673944,0.006168318495283
47.1990807239299,0.0061516796416789
47.22780810112037,0.0067271524891116
47.25653547831082,0.0056907626281942
47.28526285550129,0.0057296120220578
47.31399023269175,0.0113236001844712
47.342717609882214,0.0077077883087743
47.37144498707268,0.0083574658018053
47.40017236426314,0.009382614360303
47.4288997414536,0.008447506576652
47.45762711864406,0.0082286542962679
47.486354495834526,0.0087333999011201
47.51508187302499,0.0080658952690933
47.54380925021545,0.0071359482789875
47.57253662740592,0.0067095503159201
47.60126400459637,0.0067075236021636
47.62999138178684,0.0062811673365644
47.6587187589773,0.0064558872847258
47.687446136167765,0.0063257171012681
47.71617351335823,0.0066920367448277
47.74490089054869,0.0069012142532534
47.77362826773915,0.0054057764971993
47.80235564492961,0.0059409327002952
47.83108302212008,0.0057353269182316
47.85981039931054,0.0059747555016863
47.888537776501,0.0062583982940575
47.91726515369147,0.0061099022574882
47.94599253088192,0.0058480853785302
47.97471990807239,0.0057863872569115
48.00344728526285,0.0058719816049845
48.032174662453315,0.0060564009258965
48.06090203964378,0.0062700177427609
48.08962941683424,0.0063390704817991
48.1183567940247,0.0066314248971098
48.14708417121516,0.0082615772595393
48.175811548405626,0.0083006551481065
48.20453892559609,0.0083345497800934
48.233266302786554,0.0085200707088266
48.26199367997702,0.0087486879847411
48.290721057167474,0.0079884476799823
48.31944843435794,0.0081080293063059
48.3481758115484,0.0074569773939661
48.376903188738865,0.0064345261543443
48.40563056592933,0.0063613295165222
48.43435794311979,0.0064234050187079
48.46308532031025,0.0065197156285671
48.49181269750071,0.0066257491292097
48.520540074691176,0.0065381455965786
48.54926745188164,0.0064399178409687
48.577994829072104,0.0064707005667026
48.60672220626257,0.0065097473477395
48.635449583453024,0.0063714088096675
48.66417696064349,0.0064183024259731
48.69290433783395,0.006572886284583
48.721631715024415,0.0059139711719638
48.75035909221488,0.0061329247173517
48.77908646940534,0.0063037142894785
48.8078138465958,0.0062833330308684
48.83654122378626,0.0061934565957055
48.86526860097673,0.0061453107540939
48.89399597816719,0.006034568034247
48.922723355357654,0.0065561108068028
48.95145073254812,0.0066994430611866
48.980178109738574,0.0066829347051112
49.00890548692904,0.0084624951535005
49.0376328641195,0.0080468927043502
49.066360241309965,0.0079034300258213
49.09508761850043,0.0083067523339065
49.12381499569089,0.0079308970961309
49.15254237288135,0.0072120299309885
49.18126975007181,0.0067980676514365
49.20999712726228,0.0064296852865297
49.23872450445274,0.0057736221722423
49.2674518816432,0.0062032284081665
49.29617925883367,0.0059296646881371
49.32490663602413,0.005686172723792
49.35363401321459,0.0054457011710655
49.38236139040505,0.0064751277133794
49.411088767595515,0.0065997198695738
49.43981614478598,0.0024886768162072
49.46854352197644,0.0088725690072917
49.4972708991669,0.0044507955729102
49.52599827635736,0.0104112182570901
49.55472565354783,0.0098934794487832
49.58345303073829,0.0134058321990869
49.612180407928754,0.0148532749239844
49.64090778511922,0.0127797656833703
49.669635162309675,0.0214529534262665
49.69836253950014,0.018707161025676
49.7270899166906,0.0197802364505253
49.755817293881066,0.0187510868013646
49.78454467107153,0.0179527832771582
49.81327204826199,0.0194399553485302
49.84199942545245,0.015724076528877
49.87072680264291,0.0114174439734182
49.89945417983338,0.0098274005396355
49.92818155702384,0.0100001760036466
49.956908934214304,0.0090021245769794
49.98563631140477,0.0079630443422021
50.014363688595225,0.0075009252404265
50.04309106578569,0.0069122095532828
50.07181844297615,0.0071611257101325
50.100545820166616,0.0076065890081837
50.12927319735708,0.007598513816125
50.15800057454754,0.0074032391146255
50.186727951738,0.0076808315871026
50.21545532892846,0.0076775306687708
50.24418270611893,0.0072313340059971
50.27291008330939,0.0066966899698142
50.301637460499855,0.007666058240769
50.33036483769032,0.0069740826863968
50.359092214880775,0.0065498890395442
50.38781959207124,0.0070049446302521
50.4165469692617,0.0069123353331044
50.445274346452166,0.0066811621713682
50.47400172364263,0.0065501911817919
50.50272910083309,0.0064915074056923
50.53145647802355,0.006509599321404
50.560183855214014,0.0059095804137495
50.58891123240448,0.0102580950735647
50.61763860959494,0.0082336172850823
50.646365986785405,0.0087619628348738
50.67509336397587,0.0091795541331217
50.703820741166325,0.0089580546800505
50.73254811835679,0.0089216547770722
50.76127549554725,0.0084816976085619
50.79000287273771,0.0074460731730521
50.81873024992818,0.0063879617764648
50.84745762711864,0.0057737485123256
50.8761850043091,0.0057101660433665
50.90491238149957,0.0057808208511256
50.93363975869003,0.0060059311692519
50.96236713588049,0.0060376155273616
50.991094513070955,0.0058753171933887
51.01982189026142,0.0058084382237583
51.048549267451875,0.0058976653401567
51.07727664464234,0.0058061426158476
51.1060040218328,0.0069659373907693
51.134731399023266,0.00546242217655
51.16345877621373,0.0048969531644548
51.192186153404194,0.0050491094112357
51.22091353059465,0.0055127490645672
51.249640907785114,0.0064274789811182
51.27836828497558,0.0060861053493263
51.30709566216604,0.0064769540380313
51.335823039356505,0.0065340424479847
51.36455041654697,0.0071399479691061
51.393277793737425,0.0085616841477307
51.42200517092789,0.0089970598509287
51.45073254811835,0.0084884348668517
51.47945992530882,0.0082919263916395
51.50818730249928,0.0085388181508774
51.536914679689744,0.0086004740290244
51.5656420568802,0.0082640534925782
51.594369434070664,0.0077324124663523
51.62309681126113,0.0073269374191824
51.65182418845159,0.0068728125329593
51.680551565642055,0.0070303856992181
51.70927894283252,0.0073061359751342
51.738006320022976,0.0074429099220817
51.76673369721344,0.0074540868019494
51.7954610744039,0.0075001013763474
51.82418845159437,0.0074148167487385
51.85291582878483,0.0070983555374736
51.881643205975294,0.0076110389398496
51.91037058316575,0.0083578328517227
51.939097960356214,0.0083708994857457
51.96782533754668,0.0087803854223689
51.99655271473714,0.0084776808065616
52.025280091927605,0.0086756675470235
52.05400746911807,0.0083739535864377
52.082734846308526,0.0085388150729259
52.11146222349899,0.0083597070171736
52.14018960068945,0.0077275882005628
52.16891697787992,0.0077505012277987
52.19764435507038,0.0083305643614638
52.22637173226085,0.0089391675164359
52.2550991094513,0.0090974365775025
52.283826486641765,0.0089833888412123
52.31255386383223,0.008760061971518
52.34128124102269,0.0086216084029015
52.37000861821315,0.0086620860161943
52.39873599540362,0.0084214510290178
52.42746337259408,0.0073027005772955
52.45619074978454,0.0061848419617769
52.484918126975,0.0062182916775776
52.51364550416547,0.0064447530621844
52.54237288135593,0.0066026883363708
52.571100258546394,0.0063972239913389
52.59982763573685,0.0066080156884954
52.628555012927315,0.0054988204209162
52.65728239011778,0.0078650306660597
52.68600976730824,0.0065473859193045
52.714737144498706,0.0066218619620411
52.74346452168917,0.0070765389135427
52.772191898879626,0.0074992231867847
52.80091927607009,0.0063386889294658
52.82964665326055,0.0070092732297996
52.85837403045102,0.0079974633630566
52.88710140764148,0.007806359398072
52.915828784831945,0.0076520553456347
52.9445561620224,0.0076736187023531
52.973283539212865,0.0075079898381865
53.00201091640333,0.0070425979336282
53.03073829359379,0.0082411388846879
53.059465670784256,0.0080747830545486
53.08819304797471,0.0078803244171566
53.116920425165176,0.0078722045108348
53.14564780235564,0.0075810863014841
53.174375179546104,0.0074839942470622
53.20310255673657,0.0075019943057501
53.23182993392703,0.0072186521163302
53.26055731111749,0.0067061628222637
53.28928468830795,0.0062250174866419
53.318012065498415,0.005989726325044
53.34673944268888,0.0060316649877723
53.37546681987934,0.0061298943838501
53.404194197069806,0.0059383552241557
53.43292157426026,0.0061002413057737
53.46164895145073,0.006278272252387
53.49037632864119,0.0062271749478196
53.519103705831654,0.0062135046132474
53.54783108302212,0.006575731463452
53.57655846021258,0.0064274065077187
53.60528583740304,0.0060482282471018
53.6340132145935,0.0064825513097992
53.662740591783965,0.0062845045531854
53.69146796897443,0.0059301100518381
53.72019534616489,0.0059530954907226
53.74892272335536,0.0060077434067312
53.77765010054581,0.0067426771719684
53.80637747773628,0.007686239718483
53.83510485492674,0.0081460613852052
53.8638322321172,0.007323449716511
53.89255960930767,0.0076214637134162
53.92128698649813,0.0083830902884411
53.95001436368859,0.0076827768930896
53.97874174087905,0.0077748520973877
54.007469118069515,0.0072387703310986
54.03619649525998,0.0065328679612415
54.06492387245044,0.0060586515079889
54.09365124964091,0.0060616927844915
54.12237862683136,0.0061990128192247
54.15110600402183,0.005883977991691
54.17983338121229,0.0053172225258937
54.208560758402754,0.0055825845973662
54.23728813559322,0.0058400319343523
54.26601551278368,0.0059798720072145
54.29474288997414,0.0055976161780053
54.3234702671646,0.0056679159332087
54.352197644355066,0.005659250692866
54.38092502154553,0.0056655425738891
54.40965239873599,0.0063814890458983
54.43837977592646,0.005629011365632
54.46710715311691,0.0052619058873033
54.49583453030738,0.0055798041441165
54.52456190749784,0.0059880113221525
54.553289284688304,0.0057981440375645
54.58201666187877,0.0054744716764647
54.61074403906923,0.0049123139238913
54.63947141625969,0.008388671058238
54.66819879345015,0.0086701988682828
54.696926170640616,0.0090517346311486
54.72565354783108,0.0082179712140744
54.75438092502154,0.008495606295456
54.78310830221201,0.0084619572373182
54.81183567940246,0.0084019804285315
54.84056305659293,0.007797075830082
54.86929043378339,0.0057859616367459
54.898017810973855,0.0059832830844803
54.92674518816432,0.0059707985704993
54.95547256535478,0.0058145344230058
54.98419994254524,0.00575633128467
55.0129273197357,0.0056601630555619
55.041654696926166,0.0056372219525958
55.07038207411663,0.0057547435097633
55.09910945130709,0.0057785096323224
55.12783682849756,0.0051689208087096
55.156564205688014,0.0053070688950564
55.18529158287848,0.0054991990085826
55.21401896006894,0.0054364647699081
55.242746337259405,0.0054898388193179
55.27147371444987,0.0056872011419775
55.30020109164033,0.0056902697013629
55.32892846883079,0.0058053261537942
55.35765584602125,0.0059919264646008
55.38638322321171,0.0060065439435535
55.41511060040218,0.0064935545038933
55.44383797759264,0.0059291511906851
55.47256535478311,0.006014056650537
55.50129273197357,0.0086190660225366
55.53002010916403,0.0076766867701365
55.55874748635449,0.0082611812597731
55.587474863544955,0.0064275552760672
55.61620224073542,0.0065546351763952
55.64492961792588,0.010143467299853
55.67365699511634,0.0072983707058253
55.7023843723068,0.0072331456601638
55.731111749497266,0.0058014051181671
55.75983912668773,0.0058243403317788
55.788566503878194,0.0058910419876234
55.81729388106866,0.0061277442318804
55.846021258259114,0.0061596245238636
55.87474863544958,0.0052888161268501
55.90347601264004,0.0055735824069702
55.932203389830505,0.0053921220227851
55.96093076702097,0.0055005824165752
55.98965814421143,0.0056936003260049
56.01838552140189,0.0056147488014727
56.04711289859235,0.0054974333973627
56.07584027578282,0.0056812636013794
56.10456765297328,0.0054790122508727
56.133295030163744,0.0054389504593275
56.16202240735421,0.0055257184557373
56.190749784544664,0.0055993897599329
56.21947716173513,0.005646787517098
56.24820453892559,0.0056942130436467
56.276931916116055,0.0061361008593114
56.30565929330652,0.0073009937041046
56.33438667049698,0.0066145831773816
56.36311404768744,0.0066228201180627
56.3918414248779,0.0107589107471572
56.42056880206837,0.0128572971323351
56.44929617925883,0.0174272917701467
56.478023556449294,0.0214328600175093
56.50675093363976,0.023329175062277
56.535478310830214,0.0237304270393831
56.56420568802068,0.0236073716055888
56.59293306521114,0.023769475227212
56.621660442401605,0.0236975615016036
56.65038781959207,0.0213027625206289
56.67911519678253,0.0157060375225238
56.70784257397299,0.0133770403720481
56.73656995116345,0.0112812218291662
56.76529732835392,0.0076020878944905
56.79402470554438,0.0092906132450413
56.82275208273485,0.008143348906304
56.85147945992531,0.0071351026893427
56.880206837115765,0.0070751209112844
56.90893421430623,0.0068781617020189
56.93766159149669,0.0065524712773426
56.96638896868715,0.0068103116275465
56.99511634587762,0.0066297659463633
57.02384372306808,0.0062087526598556
57.05257110025854,0.0069450305987822
57.081298477449,0.0068462210330076
57.11002585463947,0.0074000584316382
57.13875323182993,0.0074086826880948
57.167480609020394,0.0088363376538406
57.19620798621086,0.0082751578476607
57.224935363401315,0.0090512731104411
57.25366274059178,0.0081132437913334
57.28239011778224,0.0078823578959102
57.311117494972706,0.0078806875333851
57.33984487216317,0.0069727256209431
57.36857224935363,0.0063875277868768
57.39729962654409,0.0061402777410785
57.42602700373455,0.0056723416135493
57.45475438092502,0.0055582240497123
57.48348175811548,0.0056957849144402
57.512209135305945,0.0055042565921018
57.54093651249641,0.0057401470243205
57.569663889686865,0.0057267982612539
57.59839126687733,0.0054574084542778
57.62711864406779,0.0056305498922703
57.655846021258256,0.0060372582155026
57.68457339844872,0.0057400770851323
57.71330077563918,0.0057637717836083
57.74202815282964,0.0057316613518319
57.770755530020104,0.0057516952907753
57.79948290721057,0.0057813786863604
57.82821028440103,0.0058353145146963
57.856937661591495,0.0057992027761906
57.88566503878196,0.0054782729984165
57.914392415972415,0.00575728815374
57.94311979316288,0.0065677236074441
57.97184717035334,0.0070969758863896
58.000574547543806,0.0071998444424728
58.02930192473427,0.0071332946073416
58.05802930192473,0.0072572951359667
58.08675667911519,0.0074053047243098
58.115484056305654,0.0072058835174713
58.14421143349612,0.0066085770381479
58.17293881068658,0.0061359518813708
58.201666187877045,0.005581718890853
58.23039356506751,0.0056079946443337
58.259120942257965,0.0056190796861704
58.28784831944843,0.0054017036043457
58.31657569663889,0.0056984956065906
58.34530307382936,0.0056342698729793
58.37403045101982,0.0056897637605767
58.40275782821029,0.0054519353438896
58.43148520540074,0.0053975746738789
58.4602125825912,0.0054004414704302
58.48893995978167,0.0055283211240053
58.51766733697213,0.0057615667084246
58.546394714162595,0.0057646383581183
58.57512209135306,0.0058611757262158
58.603849468543515,0.0058759074478105
58.63257684573398,0.0058446713735898
58.66130422292444,0.0058522706938395
58.69003160011491,0.0059091974091286
58.71875897730537,0.0077410072718361
58.747486354495834,0.0077699320465938
58.77621373168629,0.0071720816694048
58.804941108876754,0.007148420425428
58.83366848606722,0.0074628898007692
58.86239586325768,0.0067292904313826
58.891123240448145,0.0070429321010208
58.9198506176386,0.0062489131379373
58.948577994829066,0.0056081354132226
58.97730537201953,0.0053489252813112
59.00603274920999,0.0051114134156766
59.03476012640046,0.0054298784684814
59.06348750359092,0.0053702008163335
59.09221488078138,0.0053274839248835
59.12094225797184,0.0053748140142074
59.149669635162304,0.0051033014968251
59.17839701235277,0.0050811224055108
59.20712438954323,0.005175480898669
59.235851766733695,0.0054312322764558
59.26457914392415,0.0051755088713775
59.293306521114616,0.0051594876630429
59.32203389830508,0.0052215611286951
59.35076127549554,0.0052076424680332
59.37948865268601,0.0053125142284715
59.40821602987647,0.0050626681145778
59.43694340706693,0.0054684736550181
59.46567078425739,0.0064626901536421
59.494398161447855,0.007375583124642
59.52312553863832,0.0075722949254136
59.55185291582878,0.007346320328479
59.580580293019246,0.0074841832029262
59.6093076702097,0.0073536614266797
59.638035047400166,0.0070491013725619
59.66676242459063,0.0073326254067581
59.69548980178109,0.0070566811703942
59.72421717897156,0.0038177444775682
59.75294455616202,0.0048469300495844
59.78167193335248,0.0054151492810225
59.81039931054294,0.0051360894440648
59.839126687733405,0.0051336206350629
59.86785406492387,0.0052928693948777
59.89658144211433,0.0053476649760443
59.9253088193048,0.0053348250380795
59.95403619649525,0.0053317428150975
59.98276357368571,0.0053054467399568
60.01149095087618,0.0053341028338283
60.04021832806664,0.0053976510718507
60.06894570525711,0.0054376293277092
60.09767308244757,0.0054090404770615
60.12640045963803,0.0052714408250192
60.15512783682849,0.0052504327244572
60.183855214018955,0.0058577433618003
60.21258259120942,0.0055815184567502
60.24130996839988,0.0061984230072065
60.270037345590346,0.0068133308778387
60.2987647227808,0.0081601266432964
60.327492099971266,0.0165791407202963
60.35621947716173,0.018858180667756
60.384946854352194,0.0222180419208789
60.41367423154266,0.0245619925262517
60.44240160873312,0.025170951573965
60.47112898592358,0.026604787724839
60.49985636311404,0.0276589416764273
60.528583740304505,0.0258118044994638
60.55731111749497,0.0242766415772891
60.58603849468543,0.0230209252846417
60.614765871875896,0.0171384224151996
60.64349324906635,0.0153839614975571
60.672220626256816,0.0130119793842562
60.70094800344728,0.0104346505533216
60.729675380637744,0.004448508509861
60.75840275782821,0.0065064841258088
60.78713013501867,0.0068615234023816
60.81585751220913,0.0060608276062831
60.84458488939959,0.0063585768343485
60.873312266590055,0.0060287947893849
60.90203964378052,0.0063754092833155
60.93076702097098,0.0064178202588985
60.959494398161446,0.0058528335941393
60.9882217753519,0.0059077361899088
61.01694915254237,0.0056197696040149
61.04567652973283,0.0065839887615491
61.074403906923294,0.0077968201936599
61.10313128411376,0.0079433918258079
61.13185866130422,0.007785959398172
61.16058603849468,0.0078997202427968
61.18931341568514,0.0074116604980611
61.218040792875605,0.0084632144852309
61.24676817006607,0.0087189373744781
61.27549554725653,0.006108539221832
61.304222924447,0.0064777684656999
61.33295030163745,0.0043157940681271
61.36167767882792,0.0059223292368116
61.39040505601838,0.00592276752313
61.41913243320885,0.005489235823832
61.44785981039931,0.0057043132391416
61.47658718758977,0.0061287026793769
61.50531456478023,0.0048662029969931
61.53404194197069,0.0049464469555155
61.56276931916115,0.0052089226355208
61.59149669635162,0.0051688990362152
61.62022407354208,0.0048900206900688
61.64895145073255,0.0050938426402403
61.677678827923,0.0048400574260449
61.70640620511347,0.0050765006472761
61.73513358230393,0.0049604319598796
61.763860959494394,0.0054507143783482
61.79258833668486,0.0043802908242615
61.82131571387532,0.0044077290891684
61.85004309106578,0.0080793794472799
61.87877046825624,0.0072430075231622
61.907497845446706,0.0073594155794826
61.93622522263717,0.0073914887460134
61.96495259982763,0.0074103623222407
61.9936799770181,0.0071179197856178
62.02240735420855,0.0073346036050082
62.05113473139902,0.0067014128150578
62.07986210858948,0.0054427478959186
62.108589485779945,0.0048638134779802
62.13731686297041,0.0053125605853261
62.16604424016087,0.005184469545722
62.19477161735133,0.0052696299722562
62.22349899454179,0.0051701300969218
62.252226371732256,0.0051816218382071
62.28095374892272,0.0051218515844415
62.30968112611318,0.0052981021248205
62.33840850330365,0.0051039016773901
62.367135880494104,0.0052542550880668
62.39586325768457,0.0048792413109985
62.42459063487503,0.0047332779949065
62.453318012065495,0.0049612792587647
62.48204538925596,0.0052745550446192
62.51077276644642,0.0051352466161311
62.53950014363688,0.0051998167806228
62.56822752082734,0.0048963667778718
62.596954898017806,0.0053212218946168
62.62568227520827,0.0062759585296004
62.65440965239873,0.0069425873881331
62.6831370295892,0.0070725239093892
62.711864406779654,0.0070608357824062
62.74059178397012,0.0070404772684053
62.76931916116058,0.0069083573973832
62.798046538351045,0.007097594573201
62.82677391554151,0.0069248356984244
62.85550129273197,0.0074584074440097
62.88422866992243,0.0044403052904947
62.91295604711289,0.0046136203082001
62.94168342430336,0.0048035526548942
62.97041080149382,0.0034786374102249
62.99913817868429,0.007390929688646
63.02786555587475,0.0053282999127396
63.0565929330652,0.0055860566278249
63.08532031025567,0.0053905040905802
63.11404768744613,0.0054691846930178
63.142775064636595,0.0053695856231272
63.17150244182706,0.0053725308644744
63.20022981901752,0.005260311731095
63.22895719620798,0.0052207287435508
63.25768457339844,0.0052048931277759
63.28641195058891,0.005078903707232
63.31513932777937,0.0050791949448668
63.343866704969834,0.0049825116857245
63.3725940821603,0.0052212648339166
63.401321459350754,0.0053096923780419
63.43004883654122,0.0050819092204809
63.45877621373168,0.0052397632092492
63.487503590922145,0.0057600218301561
63.51623096811261,0.0069055879263779
63.54495834530307,0.0071830808912294
63.57368572249353,0.0071921977011533
63.60241309968399,0.006966405011389
63.63114047687446,0.007049039509033
63.65986785406492,0.0069531144590196
63.688595231255384,0.0066661476378771
63.71732260844585,0.0063961676308441
63.746049985636304,0.0044697248681442
63.77477736282677,0.0050671148673003
63.80350474001723,0.0054073419661099
63.832232117207695,0.0051299931784128
63.86095949439816,0.005177225226013
63.88968687158862,0.0050681822855198
63.91841424877908,0.0050726221041224
63.94714162596954,0.0050841229731566
63.97586900316001,0.0051438927518707
64.00459638035046,0.0049588047884697
64.03332375754093,0.0055792850880931
64.06205113473139,0.005249507073459
64.09077851192185,0.0050124677033496
64.11950588911232,0.0052103802736695
64.14823326630278,0.0054217565909233
64.17696064349325,0.0047837955680732
64.20568802068371,0.0059132131003541
64.23441539787417,0.0074993159879794
64.26314277506464,0.0036294171335102
64.2918701522551,0.0141800241422717
64.32059752944556,0.0130529264696288
64.34932490663601,0.0226916946671426
64.37805228382648,0.020898431781727
64.40677966101694,0.0204150678384082
64.4355070382074,0.023616028247519
64.46423441539787,0.0253484369411654
64.49296179258833,0.0241002511923013
64.5216891697788,0.023701449402582
64.55041654696926,0.0202630317748527
64.57914392415972,0.0201811322092113
64.60787130135019,0.0173449390861004
64.63659867854065,0.0153093791013364
64.66532605573111,0.0102330976614571
64.69405343292156,0.0056960842478053
64.72278081011203,0.0067492888574132
64.75150818730249,0.0063145444670917
64.78023556449295,0.0062109465764222
64.80896294168342,0.006164818028661
64.83769031887388,0.0057159531797978
64.86641769606435,0.0060716000446959
64.89514507325481,0.0059341819132015
64.92387245044527,0.0058002581074151
64.95259982763574,0.0062821389065821
64.9813272048262,0.0062358255674267
65.01005458201665,0.0061400122919739
65.03878195920711,0.006261703232538
65.06750933639758,0.0059715697699363
65.09623671358804,0.0060834269489684
65.1249640907785,0.005938766391732
65.15369146796897,0.0052054823334624
65.18241884515943,0.0051321511522968
65.2111462223499,0.005851649310344
65.23987359954036,0.007058780355945
65.26860097673082,0.0069555754379329
65.29732835392129,0.0069004404588874
65.32605573111175,0.0069423297818344
65.3547831083022,0.0069158366994907
65.38351048549266,0.0068481166635315
65.41223786268313,0.0067760933362406
65.44096523987359,0.0061065391079691
65.46969261706406,0.0048704135614616
65.49841999425452,0.0050693993817068
65.52714737144498,0.0054324293625513
65.55587474863545,0.0051196908041849
65.58460212582591,0.0053463065858134
65.61332950301637,0.0050128379591575
65.64205688020684,0.0055920775639619
65.6707842573973,0.005286114659869
65.69951163458775,0.0051807327696497
65.72823901177821,0.0053277269711595
65.75696638896868,0.0053206447585795
65.78569376615914,0.005465624322006
65.8144211433496,0.005268082944836
65.84314852054007,0.0052885757350882
65.87187589773053,0.0053306987843826
65.900603274921,0.0053911821638384
65.92933065211146,0.0054188259893443
65.95805802930192,0.004917551932556
65.98678540649239,0.0050645698410932
66.01551278368285,0.0051577587463667
66.0442401608733,0.0048820352157232
66.07296753806376,0.0057176064366714
66.10169491525423,0.0063387300154737
66.13042229244469,0.0064689607592639
66.15914966963516,0.0064187029133497
66.18787704682562,0.0065345784452941
66.21660442401608,0.0064770963653958
66.24533180120655,0.0064743754361885
66.27405917839701,0.0064820811543279
66.30278655558747,0.0056843334185199
66.33151393277794,0.0049923768789439
66.3602413099684,0.0048490588369588
66.38896868715885,0.0049019811690405
66.41769606434931,0.0051018195262853
66.44642344153978,0.0052896287244431
66.47515081873024,0.0052720871891562
66.5038781959207,0.0053579087521963
66.53260557311117,0.0052154367490684
66.56133295030163,0.0054971965966561
66.5900603274921,0.0054589215342514
66.61878770468256,0.0052275730722883
66.64751508187302,0.0050746535634837
66.67624245906349,0.0050683326556776
66.70496983625395,0.0049756993546149
66.7336972134444,0.0049265530813313
66.76242459063486,0.0050535426497484
66.79115196782533,0.0050210918896401
66.81987934501579,0.0049600708171368
66.84860672220626,0.0050852446080409
66.87733409939672,0.0052719518336635
66.90606147658718,0.0053423374599731
66.93478885377765,0.0051568261826457
66.96351623096811,0.0052633943912203
66.99224360815857,0.0057995828695476
67.02097098534904,0.0071142483333022
67.0496983625395,0.0072495559162785
67.07842573972995,0.0073492514086982
67.10715311692041,0.0072172289038449
67.13588049411088,0.0073707695433393
67.16460787130134,0.0073846233087211
67.1933352484918,0.0065768576807042
67.22206262568227,0.0061507838165725
67.25079000287273,0.0050946263051225
67.2795173800632,0.0051729160034465
67.30824475725366,0.0055206222391
67.33697213444412,0.0053954844721013
67.36569951163459,0.005182761195588
67.39442688882505,0.0051708943678607
67.4231542660155,0.0051156824534691
67.45188164320597,0.0050789953778484
67.48060902039643,0.0050908422760133
67.50933639758689,0.0050101864760856
67.53806377477736,0.0049751715588891
67.56679115196782,0.0050756563459982
67.59551852915828,0.0050668738312227
67.62424590634875,0.0050919875367295
67.65297328353921,0.0053495348380432
67.68170066072967,0.0053676815963637
67.71042803792014,0.0052901900070267
67.7391554151106,0.0054151824990473
67.76788279230105,0.0052654868645885
67.79661016949152,0.005069740808649
67.82533754668198,0.0056878564696607
67.85406492387244,0.0065207017883669
67.8827923010629,0.0066810499894515
67.91151967825337,0.0067969252871605
67.94024705544383,0.0067800631589099
67.9689744326343,0.0067461443818218
67.99770180982476,0.0066809268658962
68.02642918701522,0.0066890520204686
68.05515656420569,0.0067507809352251
68.08388394139615,0.0059516364855788
68.1126113185866,0.0052398420795012
68.14133869577707,0.0051000895867021
68.17006607296753,0.0051455804295074
68.19879345015799,0.0050301461356655
68.22752082734846,0.0052495914119993
68.25624820453892,0.0053532562718028
68.28497558172938,0.0045397979059249
68.31370295891985,0.0082069196467124
68.34243033611031,0.0093361479259614
68.37115771330078,0.0159394867887008
68.39988509049124,0.0161483852837484
68.4286124676817,0.0166462093641394
68.45733984487215,0.0303510660822724
68.48606722206262,0.0240048317607395
68.51479459925308,0.0275900710403638
68.54352197644354,0.0270965247304549
68.572249353634,0.0254842492700982
68.60097673082447,0.0269323035991203
68.62970410801493,0.0222851436767564
68.6584314852054,0.0158235519051171
68.68715886239586,0.0206866383988564
68.71588623958633,0.0228859072866666
68.74461361677679,0.013393831136922
68.77334099396725,0.0111341890792418
68.8020683711577,0.0111249969828125
68.83079574834817,0.0068556564172685
68.85952312553863,0.0073660261104844
68.8882505027291,0.0083068769601105
68.91697787991956,0.0051516343016025
68.94570525711002,0.0059671124578218
68.97443263430048,0.0053501721205723
69.00316001149095,0.0057405910412688
69.03188738868141,0.0056933404895108
69.06061476587188,0.0053981243381159
69.08934214306234,0.0054476913764878
69.1180695202528,0.0059263027106913
69.14679689744325,0.0053489451655847
69.17552427463372,0.0053508810893091
69.20425165182418,0.0055437942101542
69.23297902901464,0.0055845827141275
69.2617064062051,0.0056536536516972
69.29043378339557,0.0057211132570827
69.31916116058603,0.0054007758177292
69.3478885377765,0.00552141914229
69.37661591496696,0.0055681502577685
69.40534329215743,0.0058002758530415
69.43407066934789,0.0052159499640366
69.46279804653835,0.0057748373775405
69.4915254237288,0.0072677687027295
69.52025280091927,0.0070805197396741
69.54898017810973,0.0072569340924524
69.5777075553002,0.0072801630890165
69.60643493249066,0.0072960256799732
69.63516230968112,0.0069991945918249
69.66388968687158,0.0075070493275271
69.69261706406205,0.0079175757858666
69.72134444125251,0.0050056374143286
69.75007181844298,0.005718628982012
69.77879919563344,0.0055381839710355
69.8075265728239,0.005791332615475
69.83625395001435,0.005696575198454
69.86498132720482,0.0054566312479668
69.89370870439528,0.0053787919671195
69.92243608158574,0.0056213126239846
69.95116345877621,0.0059532890567147
69.97989083596667,0.0059485843300075
70.00861821315713,0.0057022225237281
70.0373455903476,0.0061882725699034
70.06607296753806,0.0062114251622703
70.09480034472853,0.0062780730367825
70.12352772191899,0.0063912428225978
70.15225509910945,0.0064476602986774
70.1809824762999,0.0066763334677568
70.20970985349037,0.0067107814603542
70.23843723068083,0.0065613898014788
70.2671646078713,0.0068124126409389
70.29589198506176,0.0066228373627535
70.32461936225222,0.0068757757511904
70.35334673944269,0.007788742145518
70.38207411663315,0.0080547598380162
70.41080149382361,0.008141152041868
70.43952887101408,0.0076660343474858
70.46825624820454,0.0072693090347327
70.496983625395,0.0083986457556609
70.52571100258545,0.0079470316453731
70.55443837977592,0.0077061554100923
70.58316575696638,0.0050965655410994
70.61189313415684,0.0062711022691563
70.64062051134731,0.0067325784779
70.66934788853777,0.0064385683125035
70.69807526572824,0.0062726422583087
70.7268026429187,0.0061080619184617
70.75553002010916,0.0061162657542261
70.78425739729963,0.0059359102343632
70.81298477449009,0.0059382248984007
70.84171215168054,0.0057437795115489
70.870439528871,0.0057355965682374
70.89916690606147,0.0057229402223613
70.92789428325193,0.0056765653221114
70.9566216604424,0.0058392632030062
70.98534903763286,0.0058923973280702
71.01407641482332,0.0058599274160188
71.04280379201379,0.005944361663626
71.07153116920425,0.0058084055672982
71.10025854639471,0.005633752734994
71.12898592358518,0.0053631461112205
71.15771330077564,0.0060097168299357
71.18644067796609,0.0066563073683216
71.21516805515655,0.0065656603886186
71.24389543234702,0.0066915427640322
71.27262280953748,0.0065595403109973
71.30135018672794,0.0064638392503926
71.33007756391841,0.006607239074459
71.35880494110887,0.006329420567373
71.38753231829934,0.0062654029594869
71.4162596954898,0.0062061471550526
71.44498707268026,0.0058284571248394
71.47371444987073,0.0053974940144829
71.50244182706119,0.0060377185672923
71.53116920425164,0.0062956049140863
71.5598965814421,0.0051006251141986
71.58862395863257,0.0061292568224012
71.61735133582303,0.0061424126211601
71.6460787130135,0.0061315185341988
71.67480609020396,0.0060597363581884
71.70353346739442,0.0059442466610533
71.73226084458489,0.0059459487044572
71.76098822177535,0.0057746962653001
71.78971559896581,0.0056080285532084
71.81844297615628,0.0053145066703946
71.84717035334674,0.0074106813982053
71.87589773053719,0.0070546164663296
71.90462510772765,0.0079434746373986
71.93335248491812,0.0089270508161732
71.96207986210858,0.0071239567225975
71.99080723929904,0.0070372216743672
72.01953461648951,0.0073185411720812
72.04826199367997,0.007229292820241
72.07698937087044,0.0072657921504921
72.1057167480609,0.0073990000243453
72.13444412525136,0.0071996410820248
72.16317150244183,0.0075150163446672
72.19189887963229,0.0067316082573291
72.22062625682274,0.0059101948007967
72.2493536340132,0.00541025806853
72.27808101120367,0.0056423716360314
72.30680838839413,0.0051482367908795
72.3355357655846,0.0072699892458129
72.36426314277506,0.0092127169508763
72.39299051996552,0.0127571954260835
72.42171789715599,0.0153759963201862
72.45044527434645,0.0174215782460423
72.47917265153691,0.0243807509461021
72.50790002872738,0.022509314666242
72.53662740591784,0.0214417925228299
72.56535478310829,0.028384955056689
72.59408216029875,0.0260801531767195
72.62280953748922,0.0256465550828773
72.65153691467968,0.0221081366766021
72.68026429187015,0.0204977625390161
72.70899166906061,0.018943721380755
72.73771904625107,0.0164209700121355
72.76644642344154,0.0143629019875417
72.795173800632,0.0111894972354874
72.82390117782246,0.0094252931962084
72.85262855501293,0.0092019377290047
72.88135593220339,0.0083114155325099
72.91008330939384,0.0075703296794421
72.9388106865843,0.0078287967122967
72.96753806377477,0.0076832323691635
72.99626544096523,0.007307490819659
73.0249928181557,0.0077493040137842
73.05372019534616,0.0070405219186908
73.08244757253662,0.0061747808617894
73.11117494972709,0.0060373114920485
73.13990232691755,0.0060766684055427
73.16862970410801,0.0063751115167082
73.19735708129848,0.0069227516669707
73.22608445848894,0.0066527070289827
73.25481183567939,0.0063873351995459
73.28353921286985,0.0065819199565624
73.31226659006032,0.0060728750380448
73.34099396725078,0.0062852192564483
73.36972134444125,0.0065917083036663
73.39844872163171,0.0061257649381857
73.42717609882217,0.0058884928957529
73.45590347601264,0.006351428367181
73.4846308532031,0.0062323588395788
73.51335823039356,0.0061066768135699
73.54208560758403,0.0061557264059743
73.57081298477449,0.006190084100148
73.59954036196494,0.0060771370837207
73.6282677391554,0.0056196148813973
73.65699511634587,0.0051124841576349
73.68572249353633,0.0065879064825157
73.7144498707268,0.0073161434754981
73.74317724791726,0.0083890450791209
73.77190462510772,0.0080615126938855
73.80063200229819,0.0079973704207364
73.82935937948865,0.0080930302918537
73.85808675667911,0.0081684807333981
73.88681413386958,0.0082467253391926
73.91554151106004,0.0073602384046369
73.94426888825049,0.0062012271826021
73.97299626544095,0.006179240728076
74.00172364263142,0.0061331551966428
74.03045101982188,0.0056131333186409
74.05917839701235,0.005635014729659
74.08790577420281,0.0064621345885677
74.11663315139327,0.0058260937500854
74.14536052858374,0.0060040374883355
74.1740879057742,0.0066418416550247
74.20281528296466,0.0057296754581409
74.23154266015513,0.005669469979445
74.26027003734559,0.0067396715859026
74.28899741453604,0.0062289181676805
74.3177247917265,0.0058682237416272
74.34645216891697,0.0063372009544387
74.37517954610743,0.0064447789588107
74.4039069232979,0.0062289516289041
74.43263430048836,0.0062229968882823
74.46136167767882,0.005253164004351
74.49008905486929,0.0069916855645601
74.51881643205975,0.0058825002665378
74.54754380925021,0.0069462160340887
74.57627118644068,0.0071073563744717
74.60499856363114,0.0071703452013921
74.63372594082159,0.0077641436421566
74.66245331801206,0.008110917418467
74.69118069520252,0.0078526641162004
74.71990807239298,0.0077948745337616
74.74863544958345,0.0079954282693868
74.77736282677391,0.0077848711763161
74.80609020396437,0.0066218983935997
74.83481758115484,0.0059792484182349
74.8635449583453,0.0058918200321161
74.89227233553576,0.0054513639084323
74.92099971272623,0.0058323886485083
74.94972708991669,0.0059817915894146
74.97845446710714,0.0056929763563897
75.0071818442976,0.0057401304485671
75.03590922148807,0.0061779658097639
75.06463659867853,0.0057946083514273
75.093363975869,0.005982601801914
75.12209135305946,0.0061473003890781
75.15081873024992,0.0061549885489859
75.17954610744039,0.0059755767375304
75.20827348463085,0.0060057134033616
75.23700086182131,0.0063018512805442
75.26572823901178,0.0063840231071019
75.29445561620224,0.006068539602408
75.32318299339269,0.0064033909227481
75.35191037058316,0.0064856183933651
75.38063774777362,0.0069371859766807
75.40936512496408,0.0073547174186159
75.43809250215455,0.0077555599357055
75.46681987934501,0.0068573534691876
75.49554725653547,0.0071147533375459
75.52427463372594,0.0070043597354273
75.5530020109164,0.0071561694952864
75.58172938810687,0.0073555557762131
75.61045676529733,0.0067968591855076
75.63918414248779,0.0061154531553261
75.66791151967824,0.0061054763027083
75.6966388968687,0.0063624809098907
75.72536627405917,0.0063912605167457
75.75409365124963,0.0065184898649957
75.7828210284401,0.0064719254931531
75.81154840563056,0.006528367526459
75.84027578282102,0.0066924958753571
75.86900316001149,0.0061634792052916
75.89773053720195,0.0061517752181314
75.92645791439242,0.0062897378431449
75.95518529158288,0.0061860089980116
75.98391266877334,0.0060282146333872
76.01264004596379,0.0062612081742831
76.04136742315426,0.0062645208555574
76.07009480034472,0.0062452021720567
76.09882217753518,0.0064811199231911
76.12754955472565,0.006448579803275
76.15627693191611,0.0064774003643855
76.18500430910657,0.0071812218893751
76.21373168629704,0.0077651105957505
76.2424590634875,0.0082039645364827
76.27118644067797,0.0084858089638544
76.29991381786843,0.0128625060158275
76.32864119505889,0.0153729118804614
76.35736857224934,0.0158465609689045
76.3860959494398,0.0205739744930739
76.41482332663027,0.0243491347795459
76.44355070382073,0.0248260115236836
76.4722780810112,0.0276247382668977
76.50100545820166,0.0300928557712518
76.52973283539212,0.025114986179429
76.55846021258259,0.0263802463668355
76.58718758977305,0.0230098350467279
76.61591496696352,0.0216021395189231
76.64464234415398,0.0221827015453271
76.67336972134443,0.0179577198076765
76.70209709853489,0.0167152708376548
76.73082447572536,0.0083340225334804
76.75955185291582,0.0121145232007052
76.78827923010628,0.0103622350251145
76.81700660729675,0.0090492783419585
76.84573398448721,0.0089701794797687
76.87446136167767,0.0079245732291892
76.90318873886814,0.0093582134122905
76.9319161160586,0.0071769871937777
76.96064349324907,0.007014576543445
76.98937087043953,0.0067375679931776
77.01809824762998,0.0065599204474475
77.04682562482044,0.007122732340405
77.0755530020109,0.0074361993942446
77.10428037920137,0.0075411372719086
77.13300775639183,0.0081092376106646
77.1617351335823,0.0080946624290683
77.19046251077276,0.0080700043691645
77.21918988796322,0.0078928789781388
77.24791726515369,0.0076254348662921
77.27664464234415,0.0081642528475287
77.30537201953462,0.0067120099258992
77.33409939672508,0.0063974683471625
77.36282677391553,0.0066300030240259
77.39155415110599,0.0061816929674343
77.42028152829646,0.0062722889891768
77.44900890548692,0.0066495721646226
77.47773628267738,0.0065104886798535
77.50646365986785,0.0059650873852593
77.53519103705831,0.0062206020704825
77.56391841424877,0.0067251108572139
77.59264579143924,0.0065140356277846
77.6213731686297,0.0064435141376469
77.65010054582017,0.0069463982087889
77.67882792301063,0.0065661089487309
77.70755530020108,0.0063637218932918
77.73628267739154,0.0065039377449016
77.765010054582,0.0063450189236141
77.79373743177247,0.0063127839595817
77.82246480896293,0.0063305429732185
77.8511921861534,0.0062453126154246
77.87991956334386,0.0063122289068365
77.90864694053433,0.0063747769663427
77.93737431772479,0.0063171858477178
77.96610169491525,0.0077943514585119
77.99482907210572,0.0077370939993093
78.02355644929618,0.0076656667319077
78.05228382648663,0.007444963405483
78.0810112036771,0.0071930619201825
78.10973858086756,0.007308811003917
78.13846595805802,0.0069883784935874
78.16719333524848,0.0065473402907065
78.19592071243895,0.006171595213326
78.22464808962941,0.0060029520932861
78.25337546681988,0.0060892926655172
78.28210284401034,0.006196256688556
78.3108302212008,0.006322552491366
78.33955759839127,0.0062721377140436
78.36828497558173,0.0063428082783189
78.39701235277218,0.0065343356810827
78.42573972996264,0.0066824700723808
78.4544671071531,0.00618172046395
78.48319448434357,0.0056574357007801
78.51192186153403,0.0072403654774689
78.5406492387245,0.0065597578747497
78.56937661591496,0.0065175359999805
78.59810399310543,0.0060848154087375
78.62683137029589,0.006230460329478
78.65555874748635,0.0063756972225046
78.68428612467682,0.0065129805872577
78.71301350186728,0.0069445314666887
78.74174087905773,0.007175674863768
78.7704682562482,0.0071744989652721
78.79919563343866,0.0073114277109894
78.82792301062912,0.0073016598809476
78.85665038781958,0.0072566246392857
78.88537776501005,0.0073517933237316
78.91410514220051,0.0069531776316261
78.94283251939098,0.0062912479306367
78.97155989658144,0.0059802007647756
79.0002872737719,0.0057363523664455
79.02901465096237,0.0054151775068693
79.05774202815283,0.0060665614477472
79.08646940534328,0.0060641997641778
79.11519678253374,0.0058252427503267
79.14392415972421,0.0058970517984025
79.17265153691467,0.0059354628460978
79.20137891410513,0.0060147601922426
79.2301062912956,0.0063164023628329
79.25883366848606,0.0065245045734357
79.28756104567653,0.006508937880262
79.31628842286699,0.0061115589930409
79.34501580005745,0.0077211235127908
79.37374317724792,0.0073786704371051
79.40247055443838,0.0043803218442835
79.43119793162883,0.006378814448598
79.4599253088193,0.0060685465298371
79.48865268600976,0.0051833965401747
79.51738006320022,0.0056751362927958
79.54610744039068,0.0081965607592025
79.57483481758115,0.0082739635527261
79.60356219477161,0.0087757365232009
79.63228957196208,0.008596896723708
79.66101694915254,0.0086405307090018
79.689744326343,0.0091701238162447
79.71847170353347,0.0088948453809962
79.74719908072393,0.007353836998667
79.77592645791438,0.006983876652993
79.80465383510484,0.0064396057374555
79.83338121229531,0.0057944734630937
79.86210858948577,0.0062379934276196
79.89083596667624,0.0062324912538824
79.9195633438667,0.0057645974314834
79.94829072105716,0.0058176384391854
79.97701809824763,0.0058154159975498
80.00574547543809,0.0059620225927276
80.03447285262855,0.0057633497943936
80.06320022981902,0.0056039898603882
80.09192760700948,0.0063725256649511
80.12065498419993,0.0066607303427513
80.1493823613904,0.0065497189064343
80.17810973858086,0.0067352614090459
80.20683711577132,0.0065977923974193
80.23556449296179,0.0066290914494812
80.26429187015225,0.0069484314312673
80.29301924734271,0.0071044636275035
80.32174662453318,0.0061621497596827
80.35047400172364,0.0122194812611532
80.3792013789141,0.0140385305344542
80.40792875610457,0.016213618762243
80.43665613329503,0.0191008571455542
80.46538351048548,0.0184647623839201
80.49411088767594,0.0266067819446318
80.52283826486641,0.0229376693517004
80.55156564205687,0.0225729166702397
80.58029301924734,0.021511103647046
80.6090203964378,0.0218718831388671
80.63774777362826,0.0198263597361454
80.66647515081873,0.0140327539669135
80.69520252800919,0.014086719764084635
80.72392990519965,0.0038705474352364
80.75265728239012,0.0089204383361506
80.78138465958058,0.0159983359711948
80.81011203677103,0.0116508585810904
80.8388394139615,0.0080894290673126
80.86756679115196,0.0084640670135298
80.89629416834242,0.0085610656672997
80.92502154553289,0.0092314712420122
80.95374892272335,0.0095960671465399
80.98247629991381,0.0089127200706563
81.01120367710428,0.0084382814640678
81.03993105429474,0.0086205800433568
81.0686584314852,0.0087428496610799
81.09738580867567,0.0086590090376949
81.12611318586613,0.0084885214429913
81.15484056305658,0.0079525114666797
81.18356794024704,0.0073779331005833
81.21229531743751,0.0076389822949825
81.24102269462797,0.0080446873118826
81.26975007181844,0.0077864881291657
81.2984774490089,0.0075836654138457
81.32720482619936,0.0074885483486794
81.35593220338983,0.007672683673751
81.38465958058029,0.0071903491483923
81.41338695777075,0.0070490981992826
81.44211433496122,0.0066003614029627
81.47084171215168,0.0061384684407022
81.49956908934213,0.0061915566930099
81.5282964665326,0.0061288080087726
81.55702384372306,0.0061861467312836
81.58575122091352,0.0065732200947173
81.61447859810399,0.0053828866569703
81.64320597529445,0.005617525681449
81.67193335248491,0.005610279814902
81.70066072967538,0.005268844251385
81.72938810686584,0.0055414757958467
81.7581154840563,0.0051593414217152
81.78684286124677,0.0053392691949742
81.81557023843723,0.0052023226985089
81.84429761562768,0.0055927021548399
81.87302499281815,0.0054566834376669
81.90175237000861,0.0053833538807404
81.93047974719907,0.0055819732717839
81.95920712438954,0.005669323082592
81.98793450158,0.0063030070865117
82.01666187877046,0.0072166226547335
82.04538925596093,0.0073895484638614
82.07411663315139,0.0072941120319011
82.10284401034185,0.0074620279313313
82.13157138753232,0.0069166617444706
82.16029876472278,0.0073732520522106
82.18902614191323,0.0091828449906373
82.2177535191037,0.0049858928751812
82.24648089629416,0.0059008873511886
82.27520827348462,0.0058933560792117
82.30393565067509,0.0052358369865254
82.33266302786555,0.005581920372425
82.36139040505601,0.0061248346647501
82.39011778224648,0.0060119747044452
82.41884515943694,0.005738375321985
82.4475725366274,0.0056728026140302
82.47629991381787,0.0057953744407686
82.50502729100832,0.0058723729373589
82.53375466819878,0.0056691182455431
82.56248204538925,0.0053902549452224
82.59120942257971,0.0059094235893812
82.61993679977017,0.0045178769604929
82.64866417696064,0.0052926112331467
82.6773915541511,0.0058339517461549
82.70611893134156,0.0049968038762776
82.73484630853203,0.004995006713298
82.76357368572249,0.0058344993076419
82.79230106291295,0.0052752077033584
82.82102844010342,0.0054363799295149
82.84975581729387,0.0070654949751209
82.87848319448433,0.0073615702166758
82.9072105716748,0.0075020884849111
82.93593794886526,0.0076251995309
82.96466532605572,0.0078316205886092
82.99339270324619,0.0076562673557666
83.02212008043665,0.0076604336581617
83.05084745762711,0.007899219314723
83.07957483481758,0.0058187280882066
83.10830221200804,0.0057623338444091
83.1370295891985,0.0059517752500067
83.16575696638897,0.0054901867131661
83.19448434357942,0.0053267436653093
83.22321172076988,0.0056557722493522
83.25193909796035,0.0053948385849001
83.28066647515081,0.0052563523932339
83.30939385234127,0.0055197365326099
83.33812122953174,0.005603235679613
83.3668486067222,0.0055448074471869
83.39557598391266,0.0054502032651743
83.42430336110313,0.0055106124320121
83.45303073829359,0.0056136530802792
83.48175811548406,0.0056111219311879
83.51048549267452,0.0057791829223943
83.53921286986497,0.0054402345574789
83.56794024705543,0.0054805326127423
83.5966676242459,0.0052489992764279
83.62539500143636,0.0061096743038594
83.65412237862682,0.0063146452202416
83.68284975581729,0.0023058448447557
83.71157713300775,0.0094159332676698
83.74030451019821,0.0080219785339706
83.76903188738868,0.0077155668556022
83.79775926457914,0.0074105356107271
83.8264866417696,0.0072224895552838
83.85521401896007,0.0073068640322648
83.88394139615052,0.0075303639610558
83.91266877334098,0.0074615770568562
83.94139615053145,0.0057613999533722
83.97012352772191,0.0052587030057451
83.99885090491237,0.0052958006926647
84.02757828210284,0.0053486429575151
84.0563056592933,0.0059567261816012
84.08503303648376,0.0050940023416485
84.11376041367423,0.0056705632273831
84.14248779086469,0.0058485475430177
84.17121516805516,0.0055638575414265
84.19994254524562,0.0055415989441585
84.22866992243607,0.0055818489842184
84.25739729962653,0.0054756377261574
84.286124676817,0.0056417607662278
84.31485205400746,0.0055743850200532
84.34357943119792,0.0054972200506352
84.37230680838839,0.0055296361358356
84.40103418557885,0.0059624245232039
84.42976156276931,0.0055197953637674
84.45848893995978,0.0090926703414352
84.48721631715024,0.0099775220057357
84.5159436943407,0.0104212724582943
84.54467107153117,0.01341169998875
84.57339844872162,0.0110613395040546
84.60212582591208,0.0238696696968433
84.63085320310255,0.0195348434870751
84.65958058029301,0.0193226647750507
84.68830795748347,0.0212708317415176
84.71703533467394,0.0206509365614299
84.7457627118644,0.0188294293803468
84.77449008905486,0.0184411971938358
84.80321746624533,0.015376100740139
84.83194484343579,0.0114320627243702
84.86067222062626,0.0085968986796342
84.88939959781672,0.0072056111928239
84.91812697500717,0.0067849819113446
84.94685435219763,0.0065276309450972
84.9755817293881,0.0059311344289256
85.00430910657856,0.0056032858927895
85.03303648376902,0.0058339623729994
85.06176386095949,0.005936296464974
85.09049123814995,0.0059081664311853
85.11921861534042,0.005919342716789
85.14794599253088,0.0053435814621759
85.17667336972134,0.0054882068370242
85.2054007469118,0.0057577511324256
85.23412812410227,0.0058388009164756
85.26285550129272,0.0058639082922725
85.29158287848318,0.0055421895622772
85.32031025567365,0.005496134089891
85.34903763286411,0.0054728512554715
85.37776501005457,0.00567860989964
85.40649238724504,0.0057974424291825
85.4352197644355,0.0053049368665636
85.46394714162597,0.0052014001125691
85.49267451881643,0.0053553393265931
85.52140189600689,0.0065065130695357
85.55012927319736,0.006909905458208
85.57885665038782,0.0069620942767006
85.60758402757827,0.0068829318032185
85.63631140476873,0.006702190425499
85.6650387819592,0.0067757116914622
85.69376615914966,0.0066651867540803
85.72249353634012,0.0062228890504357
85.75122091353059,0.0058426559384018
85.77994829072105,0.0054694236448618
85.80867566791152,0.0054394227754193
85.83740304510198,0.0055006332784226
85.86613042229244,0.0053058591724933
85.8948577994829,0.0058467852963395
85.92358517667337,0.005801091702782
85.95231255386382,0.0058116677101397
85.98103993105428,0.0058013863718813
86.00976730824475,0.0057746253267285
86.03849468543521,0.0054666166521418
86.06722206262567,0.0055556301494897
86.09594943981614,0.005662571411867
86.1246768170066,0.0054202344979857
86.15340419419707,0.0055548637578992
86.18213157138753,0.0055437675139574
86.210858948578,0.0055968003169949
86.23958632576846,0.0055519533868188
86.26831370295892,0.0052969384788022
86.29704108014937,0.0052883434317622
86.32576845733983,0.0057079409076474
86.3544958345303,0.0066607218053352
86.38322321172076,0.0068252304485365
86.41195058891122,0.0063446792973035
86.44067796610169,0.006466558939521
86.46940534329215,0.0066019953115077
86.49813272048262,0.006515332127641
86.52686009767308,0.0062570610132689
86.55558747486354,0.0060499961367184
86.584314852054,0.0056839044048792
86.61304222924447,0.0051993644002313
86.64176960643492,0.0055506715548359
86.67049698362538,0.0053013176317496
86.69922436081585,0.0050526189321552
86.72795173800631,0.0053324364634953
86.75667911519677,0.0052776537362335
86.78540649238724,0.0051380114068836
86.8141338695777,0.0052018983168966
86.84286124676817,0.0053361379565789
86.87158862395863,0.0052327169693853
86.9003160011491,0.0053970952153803
86.92904337833956,0.0052971556931032
86.95777075553002,0.0052416580241914
86.98649813272047,0.0053073159884895
87.01522550991093,0.0049056638165524
87.0439528871014,0.0055377163695019
87.07268026429186,0.0055989246726854
87.10140764148233,0.0052056368266894
87.13013501867279,0.0053585572063086
87.15886239586325,0.0056891613180435
87.18758977305372,0.0052760972704364
87.21631715024418,0.0060081142647259
87.24504452743464,0.0070779362721754
87.27377190462511,0.0075045245420417
87.30249928181557,0.0072837092274332
87.33122665900602,0.0074437889492815
87.35995403619648,0.0072916523001426
87.38868141338695,0.0073097656475694
87.41740879057741,0.0073345043683019
87.44613616776788,0.0070117603753507
87.47486354495834,0.0049342680397006
87.5035909221488,0.0052013133938575
87.53231829933927,0.0049855945994427
87.56104567652973,0.0048726536397009
87.5897730537202,0.0050162526326991
87.61850043091066,0.0050150439526873
87.64722780810112,0.0050142037628965
87.67595518529157,0.0050234727283078
87.70468256248203,0.0052287746477942
87.7334099396725,0.0049649894968577
87.76213731686296,0.0051505206235228
87.79086469405343,0.0063141371072822
87.81959207124389,0.0043044810710524
87.84831944843435,0.0052715931714469
87.87704682562482,0.0054624279053412
87.90577420281528,0.0055295618552639
87.93450158000574,0.0057001206265915
87.96322895719621,0.0051107738669734
87.99195633438667,0.0053138700571106
88.02068371157712,0.0052660834700688
88.04941108876758,0.0055816720682933
88.07813846595805,0.0057113209078968
88.10686584314851,0.005327241883896
88.13559322033898,0.0054792801033081
88.16432059752944,0.0064890882833107
88.1930479747199,0.0071706768961538
88.22177535191037,0.0070752160457907
88.25050272910083,0.0069567856466526
88.2792301062913,0.0067915619926402
88.30795748348176,0.0067164882039604
88.33668486067221,0.006880164812016
88.36541223786267,0.0066859135285177
88.39413961505313,0.0062223244642792
88.4228669922436,0.0056634133530762
88.45159436943406,0.0050071322477375
88.48032174662453,0.0053173184200523
88.50904912381499,0.0080770402251477
88.53777650100545,0.010052919471988
88.56650387819592,0.0117932317284939
88.59523125538638,0.0174300628472777
88.62395863257684,0.0175561691147176
88.65268600976731,0.0184260851451207
88.68141338695776,0.019391523436762
88.71014076414822,0.0179453214173937
88.73886814133868,0.0170595129045921
88.76759551852915,0.0202816803523697
88.79632289571961,0.0134562642217984
88.82505027291008,0.0079506999909041
88.85377765010054,0.0104167369284346
88.882505027291,0.0094700889086879
88.91123240448147,0.0053974315597917
88.93995978167193,0.006244286059286
88.9686871588624,0.0065771106144874
88.99741453605286,0.0053400436228078
89.02614191324331,0.0054545302643047
89.05486929043377,0.005798383515201
89.08359666762424,0.006532814181526
89.1123240448147,0.0083049539870939
89.14105142200516,0.007811840598017
89.16977879919563,0.0079717123392471
89.19850617638609,0.0070130492416181
89.22723355357655,0.007600693864034
89.25596093076702,0.007238874730726
89.28468830795748,0.0068217403407138
89.31341568514794,0.0065457041581627
89.34214306233841,0.0054577916361193
89.37087043952886,0.0055845511854458
89.39959781671932,0.0048072316217337
89.42832519390979,0.0062073311316069
89.45705257110025,0.0054894299855875
89.48577994829071,0.0051761335032692
89.51450732548118,0.0055626457910151
89.54323470267164,0.0057383142343861
89.5719620798621,0.0060146283441952
89.60068945705257,0.0054137673579048
89.62941683424303,0.0055932661689727
89.6581442114335,0.0056516164086188
89.68687158862396,0.0057122415124456
89.71559896581441,0.0057573742259469
89.74432634300487,0.0055908776095711
89.77305372019534,0.0054531930439995
89.8017810973858,0.0052464646944674
89.83050847457626,0.0049234069439294
89.85923585176673,0.005272189103568
89.88796322895719,0.0053529433861681
89.91669060614765,0.006367161369932
89.94541798333812,0.0066809751310432
89.97414536052858,0.0066799917518455
90.00287273771904,0.0066081224974302
90.03160011490951,0.0067816492918033
90.06032749209996,0.0069023394939037
90.08905486929042,0.0078048247873835
90.11778224648089,0.0054593472022661
90.14650962367136,0.0056787139846972
90.1752370008618,0.0053913412470904
90.20396437805228,0.0051135304864078
90.23269175524274,0.0052053115693425
90.2614191324332,0.0051244979383958
90.29014650962368,0.0051141794915346
90.31887388681412,0.0053927798149976
90.3476012640046,0.0055184733708472
90.37632864119506,0.0057267381129905
90.40505601838552,0.0057406613474849
90.43378339557596,0.0057207527656329
90.46251077276644,0.0055551930145542
90.4912381499569,0.0056226718999183
90.51996552714736,0.0057405273459737
90.54869290433784,0.0051772472158685
90.57742028152828,0.0053514252417399
90.60614765871875,0.0055095193086081
90.63487503590922,0.0055226651305449
90.66360241309968,0.0054457637612742
90.69232979029016,0.0054441979554825
90.7210571674806,0.005783257975189
90.74978454467106,0.0062801507934802
90.77851192186152,0.0065329384475561
90.807239299052,0.007020291119499
90.83596667624244,0.0068821933054572
90.86469405343291,0.0067204536703804
90.89342143062338,0.0066593835452723
90.92214880781384,0.0064748114341409
90.9508761850043,0.0065865281240958
90.97960356219475,0.0056477305633397
91.00833093938525,0.0052402268005055
91.0370583165757,0.0051427183009372
91.06578569376616,0.0051350831626374
91.0945130709566,0.0048778433432633
91.12324044814709,0.0054291139093134
91.15196782533754,0.0052402725083915
91.180695202528,0.0050561999572475
91.20942257971846,0.0053181519163402
91.23814995690891,0.0053423048080245
91.2668773340994,0.0055990298049545
91.29560471128984,0.0055387884089933
91.32433208848032,0.0057549281626255
91.35305946567078,0.0054688982667651
91.38178684286125,0.0052470733916337
91.41051422005172,0.0054547916774558
91.43924159724216,0.0053335313882097
91.46796897443262,0.0052896903319901
91.49669635162309,0.0053307534233035
91.52542372881356,0.0050758252640997
91.554151106004,0.0054750181851537
91.58287848319448,0.0058548461761836
91.61160586038494,0.0058897726121211
91.6403332375754,0.0072687541853163
91.66906061476588,0.0067276073127092
91.69778799195632,0.0065638921567799
91.7265153691468,0.0067008641499613
91.75524274633726,0.0066911834281538
91.78397012352772,0.006854443208032
91.81269750071816,0.0064371665032467
91.84142487790864,0.0052122767830671
91.8701522550991,0.0048283157556643
91.89887963228956,0.0050462771984045
91.92760700948004,0.0052221485094557
91.95633438667048,0.0053549806267946
91.98506176386095,0.0053212372742082
92.01378914105142,0.0051935555145614
92.04251651824188,0.0055545469232302
92.07124389543236,0.0054770455324928
92.0999712726228,0.0053635417689928
92.12869864981326,0.0057326739942806
92.15742602700372,0.0057078315581008
92.1861534041942,0.0047393475773442
92.21488078138464,0.0052696576397021
92.24360815857511,0.0053163188836802
92.27233553576558,0.0051867555024284
92.30106291295604,0.0052024283173586
92.3297902901465,0.0053457784930634
92.35851766733695,0.0053457713178264
92.38724504452745,0.0055390143555855
92.4159724217179,0.0059073299063511
92.44469979890836,0.0051115072383661
92.4734271760988,0.0061061254159874
92.50215455328927,0.0105822701166087
92.53088193047974,0.0137936388876985
92.5596093076702,0.0152834879163936
92.58833668486066,0.0167965147343513
92.61706406205111,0.0181360430716593
92.6457914392416,0.0183543153231238
92.67451881643206,0.0210439652220065
92.70324619362252,0.0194813942053155
92.73197357081298,0.0165833724074075
92.76070094800345,0.0189339046090099
92.78942832519392,0.0161372536194
92.81815570238436,0.0098149537504979
92.84688307957482,0.0093621445528018
92.87561045676529,0.0079740609248558
92.90433783395576,0.0075464444410254
92.9330652111462,0.0061161574580205
92.96179258833668,0.0054678778517756
