timestamp,emg
0.0,0.0065702805303892
0.0287273771904625,0.0071766528441602
0.057454754380925,0.0065462123129677
0.0861821315713875,0.0065701192898191
0.11490950876185,0.0084615129629126
0.1436368859523125,0.0068329993218744
0.172364263142775,0.0051122480328531
0.2010916403332375,0.0072238519169447
0.2298190175237,0.0081487549533574
0.2585463947141626,0.0081499216908475
0.2872737719046251,0.0084691649446353
0.3160011490950876,0.0087542473860189
0.3447285262855501,0.0038825733849978
0.3734559034760126,0.0078670865151047
0.4021832806664751,0.0123482502743996
0.4309106578569376,0.008178645847834
0.4596380350474001,0.0085725519474683
0.4883654122378627,0.0087575692291621
0.5170927894283252,0.00936811878515
0.5458201666187876,0.0098287605236347
0.5745475438092502,0.0094166546294853
0.6032749209997127,0.0089502886843592
0.6320022981901752,0.0073070530615245
0.6607296753806376,0.0073365675193953
0.6894570525711002,0.0070708064884379
0.7181844297615627,0.0071885356253853
0.7469118069520252,0.0066839717174004
0.7756391841424878,0.0057546692749958
0.8043665613329503,0.0073059950657422
0.8330939385234127,0.0068192059705475
0.8618213157138752,0.0066297590312438
0.8905486929043378,0.0086678691113972
0.9192760700948004,0.0093285753390582
0.9480034472852628,0.0088563360095204
0.9767308244757252,0.0093016849667114
1.0054582016661875,0.0098939999853776
1.0341855788566503,0.0093476013100135
1.062912956047113,0.0090645302546675
1.0916403332375753,0.0083102828717665
1.1203677104280378,0.007440170776715
1.1490950876185004,0.007181917727162
1.1778224648089628,0.0071495564717259
1.2065498419994254,0.006924223904722
1.235277219189888,0.0065486428871283
1.2640045963803503,0.0065900255372076
1.292731973570813,0.0070722662274853
1.3214593507612753,0.0058029494983172
1.350186727951738,0.0065034288057131
1.3789141051422005,0.006126888641345
1.4076414823326628,0.0054746554522548
1.4363688595231254,0.0058852540444443
1.465096236713588,0.005847081170836
1.4938236139040504,0.0053592747143541
1.522550991094513,0.0055601223591532
1.5512783682849756,0.0055776288962135
1.580005745475438,0.0050485350301158
1.6087331226659003,0.0051483977695379
1.637460499856363,0.0054485214495036
1.6661878770468257,0.005184032646486
1.694915254237288,0.0050308962077582
1.7236426314277504,0.0054314874058213
1.752370008618213,0.0052063180950472
1.7810973858086756,0.005051311654533
1.809824762999138,0.0051704875501838
1.8385521401896008,0.0047902637736977
1.8672795173800631,0.0048173652374153
1.8960068945705255,0.0052392912761725
1.924734271760988,0.0050246142664642
1.9534616489514507,0.0046313062726767
1.982189026141913,0.0051910285954955
2.010916403332375,0.0045674646115567
2.0396437805228382,0.0044490087014364
2.0683711577133006,0.0051456196695319
2.097098534903763,0.0050444195655253
2.125825912094226,0.0042548988531642
2.154553289284688,0.0058901352821584
2.1832806664751505,0.0054755393759622
2.2120080436656133,0.0048849179240311
2.2407354208560757,0.0050834587145263
2.269462798046538,0.0054142517614952
2.298190175237001,0.0045778827048231
2.3269175524274632,0.0052621769875936
2.3556449296179256,0.0059711097466448
2.3843723068083884,0.0053609628942062
2.4130996839988508,0.0052410272463489
2.441827061189313,0.0054756655061278
2.470554438379776,0.0054789675492226
2.4992818155702383,0.005547798414563
2.5280091927607007,0.005576713098984
2.5567365699511635,0.0054582447211105
2.585463947141626,0.0055959423160211
2.614191324332088,0.0059012061324561
2.6429187015225506,0.0058928351811842
2.6716460787130134,0.0057870278678908
2.700373455903476,0.0063364674639136
2.729100833093938,0.0029802788134662
2.757828210284401,0.008169416406863
2.7865555874748633,0.0075398204591819
2.8152829646653257,0.0049423293712611
2.8440103418557885,0.0076758058736397
2.872737719046251,0.0092596203943887
2.9014650962367132,0.0086044347399402
2.930192473427176,0.0083722043137218
2.9589198506176384,0.0085535225556829
2.9876472278081008,0.0088007745352586
3.0163746049985636,0.0087890460390142
3.045101982189026,0.0085847884426019
3.0738293593794883,0.0085390922026649
3.102556736569951,0.0089513255601439
3.1312841137604135,0.0094013675640918
3.160011490950876,0.0093763591291619
3.1887388681413387,0.0088695212985763
3.217466245331801,0.0087427086020958
3.2461936225222634,0.0090097989087901
3.274920999712726,0.0083636651166183
3.303648376903189,0.0070860641278018
3.332375754093651,0.0058697114133587
3.3611031312841133,0.0051094700782002
3.389830508474576,0.0050754009572358
3.4185578856650385,0.0060321415924177
3.447285262855501,0.0057284647471123
3.4760126400459637,0.0057825102552298
3.504740017236426,0.0058123967094487
3.5334673944268884,0.0051016436002762
3.562194771617351,0.0048462953121058
3.5909221488078136,0.0050187557173564
3.619649525998276,0.0046137074201396
3.648376903188739,0.0045331914065879
3.677104280379201,0.0051821687767285
3.705831657569663,0.0049305679984225
3.7345590347601263,0.0048244074210078
3.7632864119505887,0.0050533466152731
3.792013789141051,0.005055312805232
3.820741166331514,0.005004665477048
3.849468543521976,0.0049964450770156
3.8781959207124386,0.0057407906991633
3.9069232979029014,0.0051434599033336
3.935650675093364,0.0051615895769409
3.964378052283826,0.0054604365881431
3.993105429474289,0.0051303704994307
4.021832806664751,0.005441433293595
4.050560183855214,0.0055687220132447
4.0792875610456765,0.004563339315738
4.108014938236138,0.0047656551521574
4.136742315426601,0.0052125721992772
4.165469692617064,0.0040860258132279
4.194197069807526,0.0046352120222579
4.222924446997989,0.0055422330977752
4.251651824188452,0.0045635901801014
4.2803792013789135,0.0041396256966599
4.309106578569376,0.0055992007094683
4.337833955759839,0.0047032618986381
4.366561332950301,0.004683208172885
4.395288710140764,0.0054072530684562
4.424016087331227,0.005169251901949
4.452743464521689,0.0047970151519129
4.481470841712151,0.0051773622541601
4.510198218902614,0.0052095385607491
4.538925596093076,0.0042218864650731
4.567652973283539,0.0048979843159342
4.596380350474002,0.0054006724970857
4.625107727664464,0.0044856689791188
4.6538351048549265,0.0056203060012485
4.682562482045389,0.0059596017124302
4.711289859235851,0.0037372566415404
4.740017236426314,0.0061280131368208
4.768744613616777,0.0070463207612153
4.797471990807239,0.0054336568258279
4.8261993679977016,0.0054708744861921
4.854926745188164,0.0067516796675768
4.883654122378626,0.0044293167169201
4.912381499569089,0.0026384393231605
4.941108876759552,0.0095587360033941
4.969836253950014,0.0045972426576975
4.998563631140477,0.0045484007924532
5.0272910083309394,0.0052651471105394
5.056018385521401,0.0056761121557138
5.084745762711864,0.0061547703814173
5.113473139902327,0.0057646450342159
5.142200517092789,0.0063487428213574
5.170927894283252,0.0059244372963829
5.199655271473714,0.0061319642925162
5.2283826486641765,0.0061193344769573
5.257110025854639,0.00533394020853
5.285837403045101,0.0063333671544528
5.314564780235564,0.0086643469780334
5.343292157426027,0.0035316659028411
5.372019534616489,0.0063674349167043
5.4007469118069515,0.0074286741293544
5.429474288997414,0.0060928077823275
5.458201666187876,0.0062064900980319
5.486929043378339,0.0073055296995057
5.515656420568802,0.0057373138416617
5.544383797759264,0.0062594674662548
5.573111174949727,0.0082751868917979
5.601838552140189,0.0106216943729366
5.630565929330651,0.0123186787615858
5.659293306521114,0.0129040580677298
5.688020683711577,0.0127839746037452
5.716748060902039,0.0128431045435958
5.745475438092502,0.0128975972773359
5.7742028152829645,0.015846100690473
5.8029301924734265,0.0098937145717711
5.831657569663889,0.0104177684459914
5.860384946854352,0.0049693368777019
5.889112324044814,0.0067403602681733
5.917839701235277,0.0067061567508369
5.94656707842574,0.0061367539217528
5.9752944556162015,0.0059252866118878
6.004021832806664,0.0061767520981548
6.032749209997127,0.0064218999538906
6.061476587187589,0.0061258620215116
6.090203964378052,0.0057940528342786
6.118931341568515,0.0060129929055523
6.147658718758977,0.0072899477485747
6.176386095949439,0.007638695792338
6.205113473139902,0.007891259203904
6.233840850330364,0.0083805717746127
6.262568227520827,0.0070417208846452
6.29129560471129,0.0076049124431744
6.320022981901752,0.0078655360186279
6.3487503590922145,0.0072084530773953
6.377477736282677,0.0061587737300778
6.406205113473139,0.0056113557292951
6.434932490663602,0.0051134710414522
6.463659867854065,0.005270250875586
6.492387245044527,0.0056545990596682
6.52111462223499,0.0052346866663476
6.549841999425452,0.0055195548528172
6.578569376615914,0.005588021192258
6.607296753806377,0.0051426645505875
6.636024130996839,0.0053431706697491
6.664751508187302,0.0055514281399329
6.693478885377765,0.0051662211920277
6.722206262568227,0.0053162197785953
6.750933639758689,0.0054036765293556
6.779661016949152,0.0049265690527642
6.808388394139614,0.004641537789821
6.837115771330077,0.0044571118798951
6.86584314852054,0.0051803674429859
6.894570525711002,0.0049587156502657
6.9232979029014645,0.0054387083367052
6.952025280091927,0.0053015004413177
6.980752657282389,0.0051384753578871
7.009480034472852,0.0052037238856487
7.038207411663315,0.0052160429685171
7.066934788853777,0.0050519557920652
7.09566216604424,0.0052603087160491
7.124389543234702,0.0055415542255504
7.153116920425164,0.0054488737159
7.181844297615627,0.0055421068750884
7.21057167480609,0.00566960843258
7.239299051996552,0.0053774425959948
7.268026429187015,0.0054147717597387
7.296753806377477,0.0057192223070651
7.325481183567939,0.0051617238723143
7.354208560758402,0.0052622647959913
7.382935937948865,0.005511504992989
7.411663315139327,0.004754381810558
7.44039069232979,0.0048725193752525
7.469118069520253,0.0052481642893307
7.497845446710715,0.0049932726470163
7.526572823901177,0.004571862242537
7.55530020109164,0.0061524405922852
7.584027578282102,0.0053261041085053
7.612754955472565,0.0051717939319013
7.641482332663028,0.0058613666016208
7.67020970985349,0.0055752303765234
7.698937087043952,0.0047890391505792
7.727664464234415,0.0055584088045637
7.756391841424877,0.0054979160730211
7.78511921861534,0.0050174998393938
7.813846595805803,0.0054321497014667
7.842573972996265,0.005392675382339
7.871301350186728,0.0049103345116912
7.90002872737719,0.0050617140524063
7.928756104567652,0.005599102399191
7.957483481758115,0.0043926539244784
7.986210858948578,0.0049384121145678
8.01493823613904,0.0058270894141965
8.043665613329502,0.0042915526747146
8.072392990519965,0.0045688381344766
8.101120367710427,0.0056839550113944
8.12984774490089,0.0052302144966188
8.158575122091353,0.0051203663908021
8.187302499281815,0.0054243967134673
8.216029876472277,0.0050584753282183
8.24475725366274,0.0047893559942863
8.273484630853202,0.0053465123918714
8.302212008043664,0.0054745710397195
8.330939385234128,0.0043229752686477
8.35966676242459,0.0056467353259402
8.388394139615052,0.0053292103315604
8.417121516805516,0.0049719659761881
8.445848893995977,0.0048349273572088
8.47457627118644,0.0055216025160055
8.503303648376903,0.0042312633868809
8.532031025567365,0.0051288021765099
8.560758402757827,0.0072201937836896
8.58948577994829,0.0021733975752136
8.618213157138753,0.0038247548913708
8.646940534329215,0.004661705370821933
8.675667911519678,0.0037213637583623
8.70439528871014,0.0048342467361646
8.733122665900602,0.0061962754801307
8.761850043091066,0.0052458444136576
8.790577420281528,0.0049147215315216
8.81930479747199,0.0053232100758286
8.848032174662453,0.0052673433264874
8.876759551852915,0.0046708149138053
8.905486929043377,0.0053639929610065
8.93421430623384,0.0053264741504103
8.962941683424303,0.0052981961538506
8.991669060614765,0.0049331756301368
9.020396437805228,0.0055743217745812
9.04912381499569,0.0043868663587032
9.077851192186152,0.0054462407356649
9.106578569376616,0.0054063666922061
9.135305946567078,0.0047323547999536
9.16403332375754,0.0052452785841057
9.192760700948003,0.0054974613169044
9.221488078138464,0.004877431536696
9.250215455328927,0.0049068628135181
9.278942832519393,0.0064614140838399
9.307670209709851,0.0043087428453135
9.336397586900317,0.0047896952009931
9.36512496409078,0.0054104000929189
9.39385234128124,0.0053569549852917
9.422579718471702,0.0051562072681494
9.451307095662166,0.0047981297187407
9.480034472852628,0.0054681970207633
9.50876185004309,0.0065260054490995
9.537489227233554,0.0076525739047484
9.566216604424016,0.0110615621592702
9.594943981614476,0.0119757223178136
9.62367135880494,0.0121372847428454
9.652398735995405,0.0140968468605843
9.681126113185863,0.0143421569544229
9.709853490376329,0.0149199924134302
9.73858086756679,0.0151467491993989
9.767308244757253,0.0123615316270575
9.796035621947716,0.0110688474443137
9.824762999138178,0.0117830387390763
9.85349037632864,0.0068489526113516
9.882217753519104,0.0073291560134652
9.910945130709566,0.0066038676869759
9.939672507900028,0.0056693141666719
9.968399885090491,0.005442497141714
9.997127262280951,0.0053712228738969
10.025854639471415,0.0053917791604609
10.05458201666188,0.0051695503444931
10.08330939385234,0.005388433705083
10.112036771042805,0.0055249309537729
10.140764148233266,0.0053265351235824
10.169491525423728,0.0054771395210198
10.19821890261419,0.0055687743333108
10.226946279804654,0.005160808087678
10.255673656995116,0.0052478755514369
10.284401034185578,0.0054670239775401
10.31312841137604,0.0058065137552511
10.341855788566503,0.0044145381348103
10.370583165756964,0.0050143759376821
10.399310542947427,0.0053331399740293
10.428037920137893,0.0044678630497378
10.456765297328351,0.0039871946586484
10.485492674518817,0.0062292658532903
10.51422005170928,0.0049032607486474
10.54294742889974,0.0051157501922442
10.571674806090202,0.0058665493576369
10.600402183280666,0.0050591013852767
10.629129560471128,0.0043474045381962
10.65785693766159,0.0052050925592086
10.686584314852054,0.0048486311231221
10.715311692042516,0.0050163965053501
10.744039069232976,0.0054327402568844
10.77276644642344,0.005142574734598
10.801493823613905,0.00474096070933
10.830221200804363,0.0052264293330612
10.858948577994829,0.0049495995954452
10.88767595518529,0.005048110710442
10.916403332375753,0.0054578830081313
10.945130709566216,0.0050740320395107
10.973858086756678,0.0050013775401305
11.00258546394714,0.0054531161213329
11.031312841137604,0.0052519477095894
11.060040218328066,0.0052085334330028
11.088767595518528,0.0055925227472342
11.117494972708991,0.0053293209362044
11.146222349899451,0.0048917741896116
11.174949727089915,0.0050720153598626
11.20367710428038,0.0057297153922309
11.23240448147084,0.0053200024279277
11.261131858661305,0.0042370494847008
11.289859235851766,0.005781627869306
11.318586613042228,0.005224211797012
11.34731399023269,0.0045757341540757
11.376041367423154,0.0052678899732845
11.404768744613616,0.0050861017430524
11.433496121804078,0.0048483462860742
11.462223498994542,0.005204312842941
11.490950876185003,0.0048718888876135
11.519678253375464,0.0047654012595469
11.548405630565927,0.0053277862675932
11.577133007756393,0.005290354983097
11.605860384946851,0.0050117278702555
11.634587762137317,0.0051921458429443
11.66331513932778,0.0054019505765248
11.69204251651824,0.0049963217058848
11.720769893708704,0.0052764682482566
11.749497270899166,0.0058002889853361
11.778224648089628,0.0052173762836871
11.806952025280092,0.0040914985581961
11.835679402470554,0.0071521304416508
11.864406779661016,0.0067263259683233
11.89313415685148,0.0028212158510675
11.92186153404194,0.0053769098856184
11.950588911232405,0.0049845840702148
11.979316288422869,0.0050518998323534
12.008043665613329,0.0054854208390142
12.03677104280379,0.0050855658940663
12.065498419994254,0.0048323785676077
12.094225797184716,0.0050083394317765
12.122953174375178,0.0047621480391249
12.151680551565642,0.0046389138781367
12.180407928756104,0.0052113855024026
12.209135305946566,0.0054615372871642
12.23786268313703,0.0049891891508735
12.266590060327491,0.0048558220030493
12.295317437517951,0.0051145134261311
12.324044814708415,0.0049529907989
12.35277219189888,0.0050296617874612
12.38149956908934,0.0052732451322534
12.410226946279804,0.0048514301149976
12.438954323470266,0.0044491513742272
12.467681700660728,0.0049293180718137
12.496409077851192,0.0047510466083471
12.525136455041654,0.0048218637602507
12.553863832232116,0.0053907060291438
12.58259120942258,0.0050963623443934
12.611318586613042,0.0044467697836095
12.640045963803503,0.0023928100107465
12.668773340993967,0.007703976194164
12.697500718184427,0.0050505132125643
12.726228095374893,0.0050881964428755
12.754955472565356,0.0051468446364641
12.783682849755817,0.0049003378527372
12.81241022694628,0.0046543293937145
12.841137604136742,0.0056969075257495
12.869864981327204,0.005214580984376
12.898592358517666,0.0050804800171805
12.92731973570813,0.0054090230273486
12.956047112898592,0.0052213529854146
12.984774490089054,0.0051344044177695
13.013501867279516,0.0054918560862684
13.04222924446998,0.0050560504044278
13.07095662166044,0.0048915676812504
13.099683998850905,0.0053880290004451
13.128411376041369,0.0055055331484287
13.157138753231829,0.0053243868388704
13.185866130422292,0.0052917220536985
13.214593507612754,0.0053089754005353
13.243320884803216,0.0048757374811637
13.272048261993678,0.0049037918462699
13.300775639184142,0.0051064592887093
13.329503016374604,0.0046139654589345
13.358230393565066,0.0042293729838432
13.38695777075553,0.0059342276284663
13.415685147945991,0.0051340315300067
13.444412525136451,0.005041635985582
13.473139902326915,0.0055447315988173
13.50186727951738,0.005308644881925
13.53059465670784,0.0045112373285652
13.559322033898304,0.0069520321719202
13.588049411088766,0.0107964951062825
13.616776788279228,0.0072543425521493
13.645504165469692,0.0131355326074512
13.674231542660154,0.0142301253941311
13.702958919850616,0.0110438342888762
13.73168629704108,0.0131009716671709
13.76041367423154,0.0148027025801009
13.789141051422003,0.0097287161760301
13.817868428612467,0.0094997911174377
13.846595805802927,0.0094559833578505
13.875323182993393,0.0086596796721286
13.904050560183856,0.0075656407689508
13.932777937374317,0.0061547896788315
13.96150531456478,0.005932296913471
13.990232691755242,0.0051955938870556
14.018960068945704,0.0061060804268819
14.047687446136166,0.0056243186524315
14.07641482332663,0.0050270154513346
14.105142200517092,0.0055368206336098
14.133869577707554,0.0054972997638769
14.162596954898016,0.0046187615301373
14.19132433208848,0.0058738340580827
14.22005170927894,0.0057679465725575
14.248779086469405,0.0062464169140841
14.277506463659869,0.0047190463084548
14.306233840850329,0.0052182692890259
14.334961218040792,0.0053750059658497
14.363688595231254,0.0053318431950769
14.392415972421716,0.0056785593302627
14.42114334961218,0.0050711067468058
14.449870726802642,0.0050111811169515
14.478598103993104,0.0053600100280968
14.507325481183567,0.0054270301396811
14.53605285837403,0.0050645948126228
14.564780235564491,0.0050995121949506
14.593507612754957,0.0050946387191209
14.622234989945415,0.0048827026377368
14.65096236713588,0.0047424135497792
14.679689744326344,0.0055793664760906
14.708417121516804,0.0067891971163823
14.737144498707266,0.0035124603093939
14.76587187589773,0.0050718799885
14.794599253088192,0.0051383730769416
14.823326630278654,0.0048834550694789
14.852054007469118,0.0050343875469848
14.88078138465958,0.0044422007912863
14.90950876185004,0.0045353262645796
14.938236139040503,0.0050659083691777
14.966963516230969,0.0055833712804606
14.995690893421427,0.0050852657944562
15.024418270611893,0.0052354429753074
15.053145647802356,0.0056663535809127
15.081873024992817,0.0054694489223916
15.11060040218328,0.0053569524546796
15.139327779373742,0.006004190258427
15.168055156564204,0.0056414299448452
15.196782533754668,0.0051092366284135
15.22550991094513,0.0055278459086283
15.254237288135592,0.0058155422549985
15.282964665326055,0.0045438609890947
15.311692042516515,0.0052407832939108
15.34041941970698,0.005099147878227
15.369146796897445,0.0041059335406419
15.397874174087905,0.0049284514185532
15.426601551278369,0.0057414987070513
15.45532892846883,0.0046568334769572
15.484056305659292,0.0046453539160738
15.512783682849754,0.0049126995878008
15.541511060040218,0.0050099615197607
15.57023843723068,0.0049821396483523
15.598965814421142,0.0052174382276031
15.627693191611606,0.0051831878676414
15.656420568802067,0.0049114363910627
15.68514794599253,0.005698994459155
15.713875323182991,0.0057016039045339
15.742602700373457,0.0053044187993912
15.771330077563915,0.0051538921694014
15.80005745475438,0.0052562630489156
15.828784831944844,0.0049866620051985
15.857512209135304,0.0053981919016611
15.886239586325768,0.0055397406235308
15.91496696351623,0.0043882865849035
15.943694340706692,0.0047026114077315
15.972421717897156,0.0059935948506242
16.001149095087616,0.0049155385797074
16.02987647227808,0.0048451899368578
16.058603849468543,0.0053175184170979
16.087331226659003,0.0054530241825108
16.116058603849467,0.0050723782840101
16.14478598103993,0.0056302426374686
16.17351335823039,0.0055520058391411
16.202240735420855,0.0044798030819131
16.23096811261132,0.0051181048783031
16.25969548980178,0.0052970148053382
16.288422866992242,0.0046225368217325
16.317150244182706,0.005237147621686
16.345877621373166,0.0056045410315691
16.37460499856363,0.0048529175613798
16.403332375754093,0.004917356526019
16.432059752944554,0.0053599256106719
16.460787130135017,0.0048209217052367
16.48951450732548,0.0047225806882114
16.51824188451594,0.005092074554102
16.546969261706405,0.0052502829249715
16.57569663889687,0.0050318775480214
16.60442401608733,0.0050403452503877
16.633151393277792,0.0051826162519629
16.661878770468256,0.0047772302716993
16.690606147658716,0.0046368291625775
16.71933352484918,0.0049647961093922
16.748060902039644,0.0045167271961606
16.776788279230104,0.0049307516021296
16.805515656420567,0.005216164981335
16.83424303361103,0.0048444100669317
16.86297041080149,0.0048236142136547
16.891697787991955,0.0051201293303394
16.92042516518242,0.0048567053378544
16.94915254237288,0.0044777529687055
16.977879919563343,0.0052555470955238
17.006607296753806,0.0052952018664437
17.035334673944266,0.0048305130573058
17.06406205113473,0.0051735851125469
17.092789428325194,0.0055081863921529
17.121516805515654,0.0042794300881478
17.150244182706118,0.0049301864062558
17.17897155989658,0.0051672801308964
17.20769893708704,0.004943883339025
17.236426314277505,0.004905694957316
17.26515369146797,0.0054423370376271
17.29388106865843,0.0052817180663975
17.322608445848893,0.0051437733566308
17.351335823039356,0.0053831544838197
17.380063200229817,0.0048184917757936
17.40879057742028,0.0046044605139091
17.437517954610744,0.007718484200226
17.466245331801204,0.0070887662232885
17.494972708991668,0.0070106996438838
17.52370008618213,0.0059124879154592
17.55242746337259,0.0064533988955875
17.581154840563055,0.007970477108693
17.60988221775352,0.0093685426670624
17.63860959494398,0.0097764050698725
17.667336972134443,0.0101577274576846
17.696064349324907,0.0107504882878958
17.724791726515367,0.0112165607968171
17.75351910370583,0.0115410433425281
17.782246480896294,0.0115981595114148
17.810973858086754,0.0110657064718987
17.839701235277218,0.0097655832245243
17.86842861246768,0.0090986583924175
17.897155989658142,0.0080442558142389
17.925883366848606,0.0081665940759464
17.95461074403907,0.0077663283447757
17.98333812122953,0.0044890040300685
18.012065498419993,0.0061699843526923
18.040792875610457,0.006103642153201
18.069520252800917,0.0049456747299464
18.09824762999138,0.0053585795778907
18.126975007181844,0.0051244221131792
18.155702384372304,0.0050878375207188
18.184429761562768,0.0054847957202197
18.213157138753232,0.0053469819913267
18.241884515943692,0.0048352596168075
18.270611893134156,0.0047391471394844
18.29933927032462,0.0052444599155739
18.32806664751508,0.0049915839876605
18.356794024705543,0.0050970279608745
18.385521401896007,0.0055090518730272
18.414248779086467,0.0053308216379409
18.44297615627693,0.0046269587365457
18.47170353346739,0.0050160975070875
18.500430910657855,0.0050557163494284
18.52915828784832,0.0043863059653254
18.557885665038786,0.0050518685811086
18.58661304222924,0.0051857190339295
18.615340419419702,0.004537554119798
18.64406779661017,0.0050822324993949
18.67279517380063,0.0055514050524231
18.701522550991093,0.0045242373286927
18.730249928181557,0.004825390730869
18.758977305372017,0.0052347108379382
18.78770468256248,0.0049985842040786
18.816432059752945,0.0048181490491232
18.845159436943405,0.0054007715948757
18.87388681413387,0.004947220309595
18.902614191324332,0.0046732858156414
18.931341568514792,0.0052714547182403
18.960068945705256,0.0049616767588766
18.98879632289572,0.0041976843008299
19.01752370008618,0.0047280155047404
19.046251077276644,0.0049940742881487
19.074978454467107,0.0051931356507001
19.103705831657567,0.0052993880769196
19.13243320884803,0.0051207515114041
19.161160586038495,0.0048148745161884
19.189887963228955,0.0049883613624663
19.21861534041942,0.00553996843073
19.24734271760988,0.0047832832712204
19.276070094800343,0.004782053884227
19.30479747199081,0.0050477047479877
19.33352484918127,0.0048864800500085
19.36225222637173,0.00487278099076
19.390979603562194,0.0054554641456467
19.419706980752657,0.0051726771278268
19.44843435794312,0.0046483566939645
19.47716173513358,0.005006248080884
19.505889112324045,0.0051412230957955
19.534616489514505,0.0048791258076148
19.56334386670497,0.0048530340784467
19.592071243895433,0.0048662091560932
19.620798621085893,0.0048212799959185
19.649525998276356,0.0049816309764859
19.67825337546682,0.0053076889423316
19.70698075265728,0.0051316131393754
19.735708129847744,0.0045959519156979
19.764435507038208,0.0047531733285617
19.793162884228668,0.0056215673547109
19.82189026141913,0.0049161875357842
19.850617638609595,0.0049021548569401
19.879345015800055,0.0055208773882712
19.90807239299052,0.0047193154443812
19.936799770180983,0.005271743319351
19.965527147371443,0.0054153136942203
19.994254524561907,0.0048684059758632
20.02298190175237,0.004904225844293
20.05170927894283,0.0055301837301448
20.080436656133298,0.0053247683290435
20.10916403332376,0.0052715700334843
20.137891410514214,0.0054395964235501
20.16661878770468,0.0049938498855675
20.195346164895145,0.0046159017526669
20.224073542085605,0.0049888321769463
20.25280091927607,0.0052514697748933
20.281528296466533,0.0043897488821669
20.310255673656993,0.004455900196252
20.338983050847457,0.0053693929375773
20.36771042803792,0.0047064739845077
20.39643780522838,0.0050556124131673
20.425165182418844,0.0051554167208725
20.453892559609308,0.0048011554501427
20.482619936799768,0.0050128072092003
20.511347313990232,0.0054775887747697
20.540074691180696,0.0053947252292898
20.568802068371156,0.0054377748651846
20.59752944556162,0.0054030495812327
20.62625682275208,0.0056032380552689
20.654984199942543,0.0049575506664377
20.683711577133007,0.0051361666561247
20.712438954323467,0.0053208427552751
20.74116633151393,0.0047593079375046
20.76989370870439,0.0049872747737467
20.798621085894855,0.0052496979559927
20.82734846308532,0.0050795329680829
20.856075840275786,0.0056472036047671
20.88480321746624,0.0049301994481836
20.913530594656702,0.0046256305899584
20.94225797184717,0.0050696915301426
20.97098534903763,0.0054606735067753
20.999712726228093,0.0055428845336328
21.028440103418557,0.0046730218108085
21.057167480609017,0.0051867667551253
21.08589485779948,0.0052642467429367
21.114622234989945,0.0050232433267814
21.143349612180405,0.0053123881879708
21.17207698937087,0.0055587698150974
21.200804366561332,0.0049832198957682
21.229531743751792,0.0051317070384838
21.258259120942256,0.0054573968042861
21.28698649813272,0.0051980597397245
21.31571387532318,0.0050673831775297
21.344441252513644,0.0061634436369507
21.373168629704107,0.0048464600209154
21.401896006894567,0.0045496206326215
21.43062338408503,0.0053116176364132
21.459350761275495,0.0050278599371266
21.488078138465955,0.0062982342162473
21.51680551565642,0.0071045020390952
21.54553289284688,0.0096666870230633
21.574260270037342,0.017160221845981
21.60298764722781,0.015169530298546
21.63171502441827,0.0153420611251391
21.66044240160873,0.0157391827299507
21.689169778799194,0.0159786540605548
21.717897155989657,0.0166766421381764
21.74662453318012,0.013980612189056
21.77535191037058,0.0103693376839062
21.804079287561045,0.0104172566275267
21.832806664751505,0.0064582016273822
21.86153404194197,0.0065647809505047
21.890261419132433,0.0093246016349633
21.918988796322893,0.0047472475016081
21.947716173513356,0.0044519513314451
21.97644355070382,0.0056740250472855
22.00517092789428,0.0054456461521893
22.033898305084744,0.0052447119847517
22.062625682275208,0.0052495889055632
22.091353059465668,0.0052412110541071
22.12008043665613,0.0049599539314959
22.148807813846595,0.0048991683114462
22.177535191037055,0.0052347600358011
22.20626256822752,0.005159977829558
22.234989945417983,0.0050228870336485
22.263717322608443,0.0054287259387924
22.292444699798907,0.0054027571637672
22.32117207698937,0.0053763986340482
22.34989945417983,0.005685326482641
22.378626831370298,0.004878199463
22.40735420856076,0.0048447028342438
22.436081585751214,0.0051093089289382
22.46480896294168,0.0058299487535877
22.493536340132145,0.0055272954294873
22.522263717322605,0.0045162177276865
22.55099109451307,0.0052747867216918
22.579718471703533,0.0051466706072346
22.608445848893993,0.0051601676394771
22.637173226084457,0.0054081045394994
22.66590060327492,0.0049475137783806
22.69462798046538,0.0048915984380775
22.723355357655844,0.0054078427648786
22.752082734846308,0.0054498664204909
22.780810112036768,0.0047276445619596
22.809537489227232,0.0049731672483372
22.838264866417695,0.0050090793857071
22.866992243608156,0.0049296839691991
22.89571962079862,0.0052430455263458
22.924446997989083,0.0053031003797176
22.953174375179543,0.0049716181646954
22.981901752370007,0.0047805441502741
23.01062912956047,0.0055910990743003
23.03935650675093,0.0051853306444412
23.06808388394139,0.0048288461414927
23.096811261131855,0.0053444589135417
23.12553863832232,0.0049375069220188
23.154266015512786,0.0044220581463589
23.18299339270325,0.0056598469882242
23.211720769893702,0.0053174089586685
23.24044814708417,0.0047392536893464
23.269175524274633,0.0048723756150329
23.297902901465093,0.0052091707712493
23.326630278655557,0.0048327240729498
23.35535765584602,0.0050398372002794
23.38408503303648,0.0050866966236356
23.412812410226945,0.0046876384713548
23.44153978741741,0.0047403796212176
23.47026716460787,0.0053007633821401
23.498994541798332,0.0050509702771022
23.527721918988796,0.0046590003888481
23.556449296179256,0.0051668161934452
23.58517667336972,0.0046601708812423
23.613904050560183,0.0046352635851438
23.642631427750644,0.0050810152959916
23.671358804941107,0.0051312732310755
23.70008618213157,0.0048974276366469
23.72881355932203,0.0050897479582333
23.757540936512495,0.0051653412412635
23.78626831370296,0.004833797395473
23.81499569089342,0.0048370504195441
23.84372306808388,0.0050962691329623
23.872450445274342,0.0050049920543972
23.90117782246481,0.0046064119321777
23.92990519965527,0.0049105869454413
23.958632576845737,0.0050603803512961
23.987359954036194,0.0050559586574558
24.016087331226657,0.005168380420921
24.04481470841712,0.0051902882758688
24.07354208560758,0.0050292926336618
24.102269462798045,0.0047849124127621
24.13099683998851,0.0051466419521891
24.15972421717897,0.0050596765369274
24.188451594369432,0.0043283686508688
24.217178971559896,0.0042410333283606
24.245906348750356,0.0055854763470586
24.27463372594082,0.004915790266285
24.303361103131284,0.0047258534410997
24.332088480321744,0.0050081643834662
24.360815857512208,0.0050790604608002
24.38954323470267,0.0050259611673971
24.41827061189313,0.0052204411450929
24.446997989083595,0.0047175430098655
24.47572536627406,0.0033029313933152
24.50445274346452,0.0058412459698998
24.533180120654983,0.0060038466759771
24.561907497845446,0.0046432020313874
24.590634875035907,0.0047566055734331
24.61936225222637,0.0055042070000021
24.64808962941683,0.0051182628830509
24.676817006607298,0.00520865713498
24.70554438379776,0.0054885157322331
24.73427176098822,0.0054740829829748
24.76299913817868,0.0049453220554088
24.791726515369145,0.005053774440541
24.82045389255961,0.005411464067952
24.84918126975007,0.0048525910647066
24.877908646940533,0.0051940205789272
24.906636024130997,0.0051897439596919
24.935363401321457,0.0050203136090191
24.96409077851192,0.0053358940596782
24.992818155702384,0.0055286182827708
25.021545532892844,0.0050115712898754
25.050272910083308,0.00483022847283
25.07900028727377,0.0054381470452054
25.10772766446423,0.0052160140143992
25.136455041654695,0.0047734283959299
25.16518241884516,0.0051357698597975
25.19390979603562,0.005633953247834
25.222637173226083,0.0052549374141828
25.251364550416547,0.0050798280719665
25.280091927607007,0.005378428734624
25.30881930479747,0.0047799249449079
25.337546681987934,0.0055374679524672
25.36627405917839,0.0051338291560491
25.395001436368855,0.0046712519598181
25.42372881355932,0.0050037698258748
25.452456190749785,0.0053890176695275
25.48118356794025,0.0053977332918503
25.50991094513071,0.005108640962773
25.53863832232117,0.0054030058249449
25.567365699511633,0.0046416661185756
25.596093076702097,0.0052248860581838
25.624820453892557,0.0070239048702572
25.65354783108302,0.0031515694040835
25.682275208273484,0.0092108471976284
25.711002585463945,0.0157748377504161
25.73972996265441,0.0119238508838697
25.768457339844872,0.0141394113258822
25.797184717035332,0.0156874711788108
25.825912094225796,0.0152596364069401
25.85463947141626,0.0152540830300386
25.88336684860672,0.0139204553582996
25.912094225797183,0.013418217935063
25.940821602987647,0.0115564840863677
25.969548980178107,0.0083961230946
25.99827635736857,0.0064713171833762
26.027003734559035,0.0055832473539053
26.055731111749495,0.0054089289148005
26.08445848893996,0.0058269825829965
26.113185866130426,0.0061208696190873
26.14191324332088,0.0057017155870151
26.170640620511342,0.0053483391049252
26.19936799770181,0.0054585987541157
26.22809537489227,0.0052712966474594
26.256822752082737,0.0052105379926695
26.285550129273197,0.0053396930412039
26.314277506463657,0.0056967901099586
26.34300488365412,0.0048339357092095
26.371732260844585,0.0052049123356903
26.400459638035045,0.0053325269438692
26.42918701522551,0.0049376917436178
26.457914392415972,0.0051638235835206
26.486641769606432,0.0053812694687972
26.515369146796896,0.005089372982156
26.544096523987356,0.0050741582511274
26.57282390117782,0.0053565301789853
26.601551278368284,0.0051228419740452
26.630278655558744,0.0043228883037333
26.659006032749208,0.004891381753717
26.68773340993967,0.005302795844101
26.71646078713013,0.0047208330021031
26.745188164320595,0.0052104784118217
26.77391554151106,0.0052807774581665
26.80264291870152,0.0047818418529978
26.831370295891983,0.0045651310949284
26.860097673082446,0.00580636596169
26.888825050272903,0.0050801869022149
26.91755242746337,0.0038102367814946
26.94627980465383,0.0061385799397065
26.975007181844298,0.0051827024261503
27.00373455903476,0.004303337463302
27.03246193622522,0.0062808015841438
27.06118931341568,0.0067175603287684
27.089916690606145,0.0027879898418502
27.11864406779661,0.0054005343891223
27.14737144498707,0.0054990717670756
27.176098822177533,0.0048320320606373
27.204826199367997,0.0051949519947844
27.233553576558457,0.0058379694863975
27.26228095374892,0.004738151238211
27.291008330939384,0.0050532112816649
27.319735708129844,0.0056304320120843
27.348463085320308,0.0054833106145676
27.37719046251077,0.0050376480219406
27.40591783970123,0.0053194081425037
27.434645216891695,0.0052755922620884
27.46337259408216,0.0045685806869739
27.49209997127262,0.0061411489094864
27.520827348463083,0.0054671044129123
27.549554725653547,0.0036834057908486
27.578282102844007,0.005464007890187
27.60700948003447,0.0054436981834581
27.635736857224934,0.0049295276109469
27.66446423441539,0.0051492070327328
27.693191611605855,0.0054833716936164
27.72191898879632,0.0054612908282863
27.750646365986785,0.0048643115086021
27.77937374317725,0.0046230393861444
27.80810112036771,0.0058918624031512
27.83682849755817,0.0048098060925186
27.865555874748633,0.0052324575636383
27.894283251939097,0.0052318774462579
27.923010629129557,0.0047578069995013
27.95173800632002,0.0051085177804543
27.980465383510484,0.0054988770841309
28.009192760700945,0.0051493470003006
28.03792013789141,0.0040397444252633
28.066647515081872,0.0057966859195385
28.095374892272332,0.005919961926169
28.124102269462796,0.0049983721019754
28.15282964665326,0.0052884829684697
28.18155702384372,0.0051067002715737
28.210284401034183,0.004760451393395
28.239011778224647,0.0048503789573286
28.267739155415107,0.0051447476803437
28.29646653260557,0.0041005567403357
28.325193909796035,0.0042594972980149
28.353921286986495,0.0064423287759527
28.38264866417696,0.0049950818627167
28.411376041367426,0.004805382429441
28.44010341855788,0.0056573470569319
28.468830795748342,0.0050647169284168
28.49755817293881,0.0045176466834076
28.52628555012927,0.0052142654317786
28.555012927319737,0.0054688757204748
28.583740304510197,0.0049320335185399
28.612467681700657,0.0046519151364233
28.64119505889112,0.0050899565869953
28.669922436081585,0.0042275462989678
28.698649813272045,0.0043484770811267
28.72737719046251,0.0048826263079566
28.756104567652972,0.0049145619312211
28.784831944843432,0.0045602842458956
28.813559322033896,0.0053061204251762
28.84228669922436,0.0049673812319558
28.87101407641482,0.004564012249766
28.899741453605284,0.0050217989848316
28.928468830795747,0.005289378512096
28.957196207986208,0.0047061228311403
28.98592358517667,0.0047079830856757
29.014650962367135,0.0050193077076559
29.043378339557595,0.0048259410313945
29.07210571674806,0.0044970704885152
29.10083309393852,0.0046356042736946
29.129560471128983,0.0041869033813936
29.158287848319446,0.003852098428954
29.18701522550991,0.0054944636632025
29.21574260270037,0.0049867867023873
29.24446997989083,0.0046470377645853
29.273197357081298,0.0047599264208355
29.30192473427176,0.0050724769661565
29.33065211146222,0.0053482276557794
29.359379488652685,0.005263971444111
29.388106865843145,0.0052373659492053
29.41683424303361,0.006380982634255
29.445561620224073,0.004841558915964
29.474288997414533,0.0043528474317267
29.503016374604996,0.0043559017359703
29.53174375179546,0.004596390750847
29.56047112898592,0.0033431345962721
29.589198506176384,0.0044303307432887
29.617925883366848,0.0065968062387438
29.646653260557308,0.0023832825110061
29.67538063774777,0.004029776178361
29.704108014938235,0.0149480692793918
29.732835392128695,0.0102906111998507
29.76156276931916,0.0074639627847572
29.790290146509623,0.0176819347032934
29.819017523700083,0.0149879881252098
29.847744900890547,0.014226870434972
29.87647227808101,0.0154494344835312
29.90519965527147,0.015510068680619
29.933927032461938,0.0109113553813599
29.9626544096524,0.0123090920393212
29.991381786842854,0.008578014236469
30.02010916403332,0.009289925486660666
30.048836541223785,0.0064950757869019
30.07756391841425,0.0112468773765287
30.10629129560471,0.0061991380993833
30.135018672795173,0.0058409405473831
30.163746049985633,0.0063497977902937
30.192473427176097,0.005552321951773
30.22120080436656,0.0054870145004041
30.24992818155702,0.0054535981632305
30.278655558747484,0.0050302125768815
30.307382935937948,0.0052954374512384
30.336110313128408,0.0055722388546749
30.364837690318872,0.0050988781556488
30.393565067509336,0.0051835206940986
30.422292444699796,0.0057032299696647
30.45101982189026,0.0057140561202067
30.479747199080723,0.0050972772535186
30.508474576271183,0.0054031427709274
30.537201953461647,0.0055304032062783
30.56592933065211,0.0052420904486975
30.59465670784257,0.0053899062739642
30.623384085033035,0.0061093523892111
30.6521114622235,0.0056461987687488
30.68083883941396,0.0051685236756923
30.709566216604426,0.0049833151742693
30.73829359379489,0.0047826918266844
30.767020970985342,0.0043957172955177
30.79574834817581,0.0055686344476729
30.824475725366273,0.0053901361168345
30.853203102556733,0.0049112124879006
30.881930479747197,0.0054431160005359
30.91065785693766,0.006139970984762
30.93938523412812,0.0046828576577886
30.968112611318585,0.0051544808441315
30.99683998850905,0.0056554414818632
31.02556736569951,0.0054072456586949
31.054294742889972,0.0047941640595323
31.083022120080436,0.0052547778844164
31.111749497270896,0.0050706278108258
31.14047687446136,0.0045572463222515
31.169204251651824,0.0050022064669912
31.197931628842284,0.0051756732001413
31.226659006032747,0.0049394966362676
31.25538638322321,0.0052567351921026
31.28411376041367,0.0055487565878988
31.312841137604135,0.0052436921685686
31.3415685147946,0.0048836282297713
31.37029589198506,0.0052394607422905
31.39902326917552,0.0052295643465267
31.427750646365983,0.0047432211559515
31.456478023556446,0.0051660074944185
31.48520540074691,0.0053220286387921
31.513932777937377,0.0052202155649941
31.54266015512783,0.0046770145453258
31.571387532318298,0.0051904803323273
31.60011490950876,0.0054644512277707
31.62884228669922,0.0045111799424365
31.657569663889685,0.0052222121639806
31.68629704108015,0.005488448488122
31.71502441827061,0.0045479522446371
31.743751795461073,0.0048155095418208
31.772479172651536,0.0048291894885697
31.801206549841996,0.0045076319976364
31.82993392703246,0.0045248866989281
31.858661304222924,0.0050135221913963
31.887388681413384,0.0049703763920412
31.916116058603848,0.0048451256555587
31.94484343579431,0.0048258304526093
31.97357081298477,0.0047481428149515
32.00229819017523,0.0043936346229916
32.031025567365695,0.0055580545408045
32.05975294455616,0.0054216562318122
32.08848032174662,0.003500680994328
32.11720769893709,0.0045145219166232
32.14593507612755,0.0042993142892092
32.17466245331801,0.0044377101996482
32.20338983050847,0.0045418259831798
32.232117207698934,0.0042438443335672
32.2608445848894,0.0044752489844149
32.28957196207986,0.0048201812095068
32.318299339270325,0.0045898636149288
32.34702671646078,0.00445022482949
32.375754093651246,0.0049509540963596
32.40448147084171,0.0048993850338272
32.43320884803217,0.0046141623222999
32.46193622522264,0.0046398702465139
32.4906636024131,0.0046376325359944
32.51939097960356,0.0048219819300704
32.54811835679402,0.0053582835443512
32.576845733984484,0.0055953852348142
32.60557311117495,0.005126171532365
32.63430048836541,0.0051369060834863
32.663027865555875,0.0050429201435619
32.69175524274633,0.0063358983142092
32.720482619936796,0.0048350148835431
32.74920999712726,0.0046557889762516
32.77793737431772,0.0056187552902874
32.80666475150819,0.005541231958439
32.83539212869865,0.004915162639603
32.86411950588911,0.0056878108644188
32.89284688307957,0.0049929074767298
32.921574260270035,0.0039511457895787
32.9503016374605,0.0047814635231759
32.97902901465096,0.0049652648079056
33.007756391841426,0.0044967357369172
33.03648376903188,0.0042566450215656
33.065211146222346,0.0048294642049434
33.09393852341281,0.0047552380379429
33.12266590060327,0.0045165799818373
33.15139327779374,0.0048597150260651
33.1801206549842,0.005218375296253
33.20884803217466,0.0050699265687645
33.23757540936512,0.0050686331687354
33.266302786555585,0.0054212589710307
33.29503016374605,0.0050663825158939
33.32375754093651,0.004797977610069
33.352484918126976,0.004994180482783
33.38121229531743,0.0046109239186396
33.409939672507896,0.0043388884707917
33.43866704969836,0.0048046220995902
33.46739442688882,0.0048591553846181
33.49612180407929,0.004410161002738
33.52484918126975,0.0046475572877236
33.55357655846021,0.0050092935204552
33.58230393565067,0.0048420919949379
33.611031312841135,0.0049750352113116
33.6397586900316,0.0060106719266919
33.66848606722206,0.008299621311376
33.697213444412526,0.0114768563563553
33.72594082160298,0.0141197557639923
33.754668198793446,0.0145187578963981
33.78339557598391,0.0180152080363246
33.812122953174374,0.0200039426129233
33.84085033036484,0.019227269050111
33.8695777075553,0.0194629393531258
33.89830508474576,0.0203573036392149
33.92703246193622,0.0165176562531846
33.955759839126685,0.0144179196506855
33.98448721631715,0.012719760620649084
34.01321459350761,0.0094645262288381
34.041941970698076,0.0086636588700574
34.07066934788853,0.006897499081914
34.099396725078996,0.0078355372601986
34.12812410226946,0.0080549481069434
34.156851479459924,0.0083994443575177
34.18557885665039,0.0080552568785305
34.21430623384085,0.0054782190700846
34.24303361103131,0.0059253331896631
34.27176098822177,0.0051902055934208
34.300488365412235,0.0049583793091104
34.3292157426027,0.0051948575818731
34.35794311979316,0.0048858347372266
34.386670496983626,0.0049686987283839
34.41539787417408,0.0052335326168431
34.44412525136455,0.0049814818962665
34.47285262855501,0.0050335858582911
34.501580005745474,0.0053754540238998
34.53030738293594,0.0052617917036409
34.5590347601264,0.0050394579640141
34.58776213731686,0.0052227937633581
34.61648951450732,0.0052271125819855
34.645216891697785,0.0048831322413159
34.67394426888825,0.0049040675913936
34.70267164607871,0.0053560689743939
34.73139902326918,0.0054407337679825
34.76012640045963,0.004065375855888
34.7888537776501,0.0050329253558461
34.81758115484056,0.0059770738276815
34.846308532031024,0.0050488045251908
34.87503590922149,0.0053975179206205
34.90376328641195,0.0052531436814363
34.93249066360241,0.0048226947214142
34.96121804079287,0.0049297051683926
34.989945417983336,0.0053718408571475
35.0186727951738,0.0047569620319338
35.04740017236426,0.0048586178530987
35.07612754955473,0.0055876858726647
35.10485492674518,0.0052388942596206
35.13358230393565,0.0042981142452169
35.16230968112611,0.0049004565847282
35.191037058316574,0.0051731315776604
35.21976443550704,0.0050560012102883
35.2484918126975,0.0050089215656382
35.27721918988796,0.005337919579877
35.30594656707842,0.0045926237065836
35.334673944268886,0.0049343090514174
35.36340132145935,0.0055959705378787
35.39212869864981,0.0049894547163133
35.42085607584027,0.0038504092086428
35.44958345303073,0.0064972225327128
35.4783108302212,0.0051983778046005
35.50703820741166,0.0046766545823751
35.535765584602125,0.0060742896380464
35.56449296179259,0.005526750819898
35.593220338983045,0.0044278808416497
35.62194771617351,0.0055158607983496
35.65067509336397,0.0056341253662697
35.679402470554436,0.0052968616474249
35.7081298477449,0.0050823909649156
35.73685722493536,0.0053579973311618
35.76558460212582,0.0052572367164399
35.794311979316284,0.0049003219134198
35.82303935650675,0.0050433811706445
35.85176673369721,0.0050731698869236
35.880494110887675,0.0049778167134351
35.90922148807814,0.0054500012748263
35.937948865268595,0.0056295982660053
35.96667624245906,0.0052730161409814
35.99540361964952,0.0052619557077845
36.024130996839986,0.0054952465508477
36.05285837403045,0.0053233231783057
36.08158575122091,0.0048087486703386
36.11031312841137,0.0054019681261627
36.139040505601834,0.0052802569193019
36.1677678827923,0.0046986870404906
36.19649525998276,0.0050836443447818
36.225222637173225,0.0050825293846034
36.25395001436369,0.0049161818175158
36.282677391554145,0.005195568198394
36.31140476874461,0.0055121652797974
36.34013214593507,0.0050989355729832
36.368859523125536,0.0051111925402805
36.397586900316,0.0058406895405536
36.426314277506464,0.0057154499064607
36.45504165469692,0.0043916214131092
36.483769031887384,0.0061103950843955
36.51249640907785,0.0057589048935947
36.54122378626831,0.0028560514220845
36.569951163458775,0.0056356475910137
36.59867854064924,0.0053894634644742
36.627405917839695,0.0047033389767915
36.65613329503016,0.0052410344867277
36.68486067222062,0.0054806842364995
36.713588049411086,0.0047433585078707
36.74231542660155,0.0049963996730505
36.771042803792014,0.0053352279425465
36.79977018098247,0.0049090123178732
36.828497558172934,0.0044202719877372
36.8572249353634,0.0056910646108072
36.88595231255386,0.0050755614118993
36.914679689744325,0.0044136753006546
36.94340706693479,0.0064827386762142
36.972134444125246,0.0048428822039123
37.00086182131571,0.004111398165417
37.02958919850617,0.0055720390070047
37.05831657569664,0.0049833204546575
37.0870439528871,0.0043755707459953
37.11577133007757,0.0053013668023762
37.14449870726802,0.005334746884913
37.17322608445848,0.005150802649868
37.20195346164895,0.0047530173256653
37.23068083883941,0.0050248319692882
37.259408216029875,0.005486418335009
37.28813559322034,0.0051891242673297
37.3168629704108,0.005512431896947
37.34559034760126,0.0055260957983051
37.37431772479172,0.0052059157733087
37.40304510198219,0.0051279464675191
37.43177247917265,0.0051897638448069
37.460499856363114,0.0044474577819275
37.48922723355357,0.0054613334715014
37.517954610744034,0.0055654152392102
37.5466819879345,0.0047297628354875
37.57540936512496,0.00493448549497
37.604136742315426,0.0060672981262475
37.63286411950589,0.0042594738428866
37.661591496696346,0.0046071464284756
37.69031887388681,0.0077349839219058
37.71904625107727,0.0052357115481939
37.74777362826774,0.011014974273538201
37.7765010054582,0.010244238767053417
37.805228382648664,0.0112244684145352
37.83395575983912,0.0138473087244132
37.862683137029585,0.0124079857197342
37.89141051422005,0.0128689252214446
37.92013789141051,0.0135918072447136
37.948865268600976,0.0121768463041034
37.97759264579144,0.0110922261
38.006320022981896,0.0109615136629742
38.03504740017236,0.0081080177877296
38.06377477736282,0.0071448436922495
38.09250215455329,0.0052568013290758
38.12122953174375,0.0055622075959458
38.149956908934215,0.0054407665458212
38.17868428612467,0.0052983817779401
38.207411663315135,0.0050209091397358
38.2361390405056,0.0046771763730402
38.26486641769606,0.005403439800115
38.293593794886526,0.0056320076237421
38.32232117207699,0.0053442783045506
38.351048549267446,0.0059289417228968
38.37977592645791,0.0060606941901768
38.408503303648374,0.0053005784524656
38.43723068083884,0.0060124060078616
38.4659580580293,0.0068057349016927
38.494685435219765,0.0050948421155991
38.52341281241022,0.0059609601090236
38.552140189600685,0.0062825510567046
38.58086756679115,0.0057198510400422
38.60959494398161,0.005717882283756
38.63832232117208,0.006256452020587
38.66704969836254,0.0059415020441166
38.69577707555299,0.0057438148618787
38.72450445274346,0.0061283890763095
38.75323182993392,0.0051386321897165
38.78195920712439,0.0044969397614166
38.81068658431485,0.0052574255170795
38.839413961505315,0.0054030869944716
38.86814133869577,0.0048721710675741
38.896868715886235,0.0057790708348434
38.9255960930767,0.0054184935728679
38.95432347026716,0.0050621111963016
38.983050847457626,0.0055173574998804
39.01177822464809,0.0057658077736308
39.04050560183855,0.0047113761591001
39.06923297902901,0.0047544615698431
39.097960356219474,0.0052394498383379
39.12668773340994,0.0054245845410436
39.1554151106004,0.0052427856460815
39.184142487790865,0.0053153295920256
39.21286986498132,0.0053466710196119
39.241597242171785,0.0042983745946204
39.27032461936225,0.006126536609887
39.29905199655271,0.0059711296227154
39.32777937374318,0.0049923744320805
39.35650675093364,0.0054976381159859
39.3852341281241,0.0059352587127496
39.41396150531456,0.0049657233082387
39.442688882505024,0.0050868159299838
39.47141625969549,0.0060647532122043
39.50014363688595,0.0046200549225895
39.528871014076415,0.0023059245658554
39.55759839126687,0.008862621800179
39.586325768457336,0.0045250245969295
39.6150531456478,0.0042004986630535
39.64378052283826,0.0053762363977868
39.67250790002873,0.0051433441703455
39.70123527721919,0.0048393713250112
39.72996265440965,0.0053125356973347
39.75869003160011,0.0055246503510026
39.787417408790574,0.0051823068916682
39.81614478598104,0.0054985303876026
39.8448721631715,0.0054279379764033
39.873599540361965,0.0058180898570025
39.90232691755242,0.0047213516700628
39.931054294742886,0.0053326513954075
39.95978167193335,0.0054043416595287
39.98850904912381,0.0049648856551337
40.01723642631428,0.0045491864599962
40.04596380350474,0.0058106953315544
40.0746911806952,0.0053584006188239
40.10341855788566,0.0051594087265568
40.132145935076124,0.0050724969603143
40.16087331226659,0.0047003215585461
40.18960068945705,0.0047951287981427
40.21832806664752,0.0050437839724714
40.24705544383797,0.0048129882217574
40.27578282102843,0.0047625943262585
40.3045101982189,0.005032506404109
40.33323757540936,0.0051174515982691
40.36196495259983,0.0050685520202369
40.39069232979029,0.0051508705183923
40.41941970698075,0.0054439744073401
40.44814708417121,0.0050017529007526
40.476874461361675,0.0043795701072941
40.50560183855214,0.0060892866576336
40.5343292157426,0.004989851621954
40.563056592933066,0.0048814242648762
40.59178397012352,0.005313681473347
40.620511347313986,0.0052613011125018
40.64923872450445,0.0048669199773146
40.67796610169491,0.005391640680996
40.70669347888538,0.0051451749027789
40.73542085607584,0.0050561581023335
40.7641482332663,0.0053691648372331
40.79287561045676,0.0051788406766994
40.821602987647225,0.0049271728487032
40.85033036483769,0.0047841294554488
40.87905774202815,0.0043969182588235
40.907785119218616,0.0055752820625646
40.93651249640907,0.00534556415044
40.965239873599536,0.0047775564986147
40.99396725079,0.0047732575772979
41.022694627980464,0.0046289586590028
41.05142200517093,0.0049243788817728
41.08014938236139,0.0051227768948238
41.10887675955185,0.0038040660005158
41.13760413674231,0.0058007084493983
41.166331513932775,0.0055126556300949
41.19505889112324,0.0048283813584936
41.2237862683137,0.0053426363237243
41.25251364550416,0.0056104292479464
41.28124102269462,0.0045065164190956
41.309968399885086,0.0046992966970232
41.33869577707555,0.0052149490773181
41.367423154266014,0.005315806287388
41.39615053145648,0.0048725785995357
41.424877908646934,0.0049331211998007
41.4536052858374,0.0053270800236783
41.48233266302786,0.0051441568102768
41.511060040218325,0.0050867927251966
41.53978741740879,0.0049866906264699
41.56851479459925,0.0046390027196
41.59724217178971,0.0052592725975968
41.62596954898017,0.0054424053211337
41.65469692617064,0.0050916156066948
41.6834243033611,0.0049313269403731
41.71215168055157,0.0053613561810257
41.74087905774203,0.0058994092154357
41.76960643493248,0.0078627647520683
41.79833381212295,0.0110956535477786
41.82706118931341,0.0116725437762373
41.855788566503875,0.0120552444065821
41.88451594369434,0.0123012139835317
41.9132433208848,0.0128487918194342
41.94197069807526,0.0141741899394962
41.97069807526572,0.0118493526706551
41.99942545245619,0.0112198946835387
42.02815282964665,0.0109568388816181
42.056880206837114,0.0090860311696898
42.08560758402758,0.0079157980898675
42.114334961218034,0.0077455001762586
42.1430623384085,0.0071499187456749
42.17178971559896,0.0054594392781224
42.200517092789426,0.0057557132234547
42.22924446997989,0.0054753401231538
42.25797184717035,0.0060371285788705
42.28669922436081,0.0063540182764472
42.31542660155127,0.0040536671350663
42.34415397874174,0.0054339247316555
42.3728813559322,0.0057565945793103
42.401608733122664,0.0051330907059176
42.43033611031313,0.0051635777344657
42.459063487503585,0.0055882472411706
42.48779086469405,0.0051728000030334
42.51651824188451,0.0052850373136729
42.545245619074976,0.0057981802030167
42.57397299626544,0.0055313489056164
42.6027003734559,0.0043355075738214
42.63142775064636,0.006461339966303
42.66015512783682,0.0056250031201315
42.68888250502729,0.004943577690451
42.71760988221775,0.0053399676072544
42.746337259408214,0.0054021832694444
42.77506463659868,0.0045867262141576
42.803792013789135,0.0054517284301757
42.8325193909796,0.0061004479538786
42.86124676817006,0.0049459517363675
42.889974145360526,0.0048793193739646
42.91870152255099,0.006442773175304
42.94742889974145,0.0041912215507585
42.97615627693191,0.004900379267119
43.004883654122374,0.0059304750338055
43.03361103131284,0.0046962599345789
43.0623384085033,0.0044951669641274
43.091065785693765,0.0053251934765186
43.11979316288423,0.0050608038297271
43.148520540074685,0.0047248783460753
43.17724791726515,0.0047918768554067
43.20597529445561,0.0049424542443641
43.23470267164608,0.0046814639057158
43.26343004883654,0.0047910811038073
43.292157426027,0.0051606100558348
43.32088480321746,0.0045892933237776
43.34961218040792,0.0055797808498971
43.37833955759839,0.0056415700938455
43.40706693478885,0.0050878768226366
43.435794311979315,0.0050635551677323
43.46452168916978,0.005242817799006
43.493249066360235,0.0053356668343879
43.5219764435507,0.0052551036239183
43.55070382074116,0.0052546020359265
43.579431197931626,0.0052814918090778
43.60815857512209,0.005070367768531
43.636885952312554,0.0054453781561726
43.66561332950301,0.0054901392792242
43.694340706693474,0.0051054192597815
43.72306808388394,0.0051831062776975
43.7517954610744,0.0051078095969084
43.780522838264865,0.0051573808489612
43.80925021545533,0.004992177912825
43.837977592645785,0.0051109320552822
43.86670496983625,0.0050972557819654
43.89543234702671,0.0050686093908625
43.924159724217176,0.0053534529032305
43.95288710140764,0.0049108866767569
43.981614478598104,0.0051212215101049
44.01034185578856,0.0053917926284147
44.039069232979024,0.005240423061705
44.06779661016949,0.0048129701760944
44.09652398735995,0.0048095970492233
44.125251364550415,0.0049446900346713
44.15397874174088,0.0049440091161986
44.182706118931335,0.0052093431430325
44.2114334961218,0.0047272141113185
44.24016087331226,0.0047041395124588
44.26888825050273,0.0052722858027651
44.29761562769319,0.0053277183214937
44.326343004883654,0.0047618018091477
44.35507038207411,0.0055332294658815
44.383797759264574,0.0049927272960367
44.41252513645504,0.0049492733411603
44.4412525136455,0.00519394223857
44.469979890835965,0.0051935573664107
44.49870726802643,0.0051285861033029
44.527434645216886,0.0049562033902384
44.55616202240735,0.0046893184791175
44.58488939959781,0.0048268560320883
44.61361677678828,0.0046596364648291
44.64234415397874,0.0044328520618816
44.6710715311692,0.0045443432770035
44.69979890835966,0.0045958055680414
44.72852628555013,0.0046055426658948
44.75725366274059,0.0044239669815632
44.78598103993105,0.0044005916698944
44.81470841712152,0.0051041906527492
44.84343579431198,0.0049322555585546
44.87216317150243,0.0049244198818045
44.9008905486929,0.0050543456938814
44.92961792588336,0.0048452869445663
44.95834530307383,0.0046124715019667
44.98707268026429,0.0052567073435413
45.015800057454754,0.0055299553467383
45.04452743464521,0.0044400958345112
45.073254811835675,0.0051211816991554
45.10198218902614,0.0057900082092223
45.1307095662166,0.0046752754302838
45.159436943407066,0.0051367356955878
45.18816432059753,0.0059728354168683
45.216891697787986,0.0043885492566826
45.24561907497845,0.0047738145792458
45.27434645216891,0.0051664505057312
45.30307382935938,0.0050616693150375
45.33180120654984,0.0054924516908143
45.360528583740304,0.0060281491059766
45.38925596093076,0.0058643731076474
45.417983338121225,0.0054056344900309
45.44671071531169,0.0059032966902028
45.47543809250215,0.0057409352489844
45.504165469692616,0.0047963647824688
45.53289284688308,0.0059852032801703
45.561620224073536,0.0064552394255546
45.590347601264,0.0055944859469453
45.619074978454464,0.0055262703510822
45.64780235564493,0.0056684920929333
45.67652973283539,0.0051664989421704
45.705257110025855,0.0045154342239072
45.73398448721631,0.0062133138611944
45.762711864406775,0.0051256586663309
45.79143924159724,0.0078008809800718
45.8201666187877,0.0074864611988787
45.848893995978166,0.009551336734773
45.87762137316863,0.0182740242524929
45.906348750359086,0.0133910914639853
45.93507612754955,0.0152419512242191
45.963803504740014,0.0161506289641964
45.99253088193048,0.0161747740732991
46.02125825912094,0.0148228220938084
46.049985636311405,0.0190944338142647
46.07871301350186,0.0192176088845105
46.107440390692325,0.0034032198852471
46.13616776788279,0.0096296122649533
46.16489514507325,0.0084241163416516
46.19362252226371,0.0056419325281361
46.22234989945418,0.0059238459100532
46.25107727664464,0.0052983250460125
46.2798046538351,0.0054304514095521
46.30853203102557,0.0052186536966676
46.33725940821603,0.0051589014968181
46.36598678540649,0.0052614565945201
46.394714162596955,0.00506127096215
46.42344153978741,0.0049924711817216
46.452168916977875,0.0052009129143663
46.48089629416834,0.005225017282312
46.5096236713588,0.005035613716107
46.538351048549266,0.005221426766011
46.56707842573973,0.0051547442737444
46.59580580293019,0.0049998629222048
46.62453318012065,0.0050159312671575
46.653260557311114,0.0047819706026217
46.68198793450158,0.0046189346035262
46.71071531169204,0.0047900534804813
46.739442688882505,0.0051586600403523
46.76817006607296,0.0050853929509459
46.796897443263425,0.0047900749472536
46.82562482045389,0.0051869329329972
46.85435219764435,0.0050298892762167
46.88307957483482,0.0048932469703175
46.91180695202528,0.0053525069666153
46.94053432921574,0.0051150935055104
46.9692617064062,0.0049481215843709
46.997989083596664,0.005194098330535
47.02671646078713,0.005000430156348
47.05544383797759,0.0050553972924852
47.08417121516805,0.0050278523742024
47.11289859235851,0.0049605266566039
47.141625969548976,0.0049006002934497
47.17035334673944,0.0048956888606902
47.1990807239299,0.0050173534630253
47.22780810112037,0.005061778711357
47.25653547831082,0.0049307433345142
47.28526285550129,0.0049129325438117
47.31399023269175,0.004937355998661
47.342717609882214,0.0048035310842309
47.37144498707268,0.0048598450516315
47.40017236426314,0.0047602567053701
47.4288997414536,0.0049064901954529
47.45762711864406,0.00496157065698
47.486354495834526,0.0049789916623339
47.51508187302499,0.0046856534270618
47.54380925021545,0.0046194621209555
47.57253662740592,0.0044747040116251
47.60126400459637,0.0056233156248696
47.62999138178684,0.0048396941823512
47.6587187589773,0.00495995767592
47.687446136167765,0.0052679691661339
47.71617351335823,0.0049958732947234
47.74490089054869,0.0049403767205591
47.77362826773915,0.0051661285400911
47.80235564492961,0.0050060145166907
47.83108302212008,0.0049121910667557
47.85981039931054,0.0052064134417582
47.888537776501,0.0049494495410204
47.91726515369147,0.0050045214945323
47.94599253088192,0.005239436842359
47.97471990807239,0.0050876245219109
48.00344728526285,0.0052104155587886
48.032174662453315,0.0055797040703003
48.06090203964378,0.0053781259421101
48.08962941683424,0.0053435229755995
48.1183567940247,0.0054792682686163
48.14708417121516,0.0051841702440835
48.175811548405626,0.0052521206010277
48.20453892559609,0.0054867618410889
48.233266302786554,0.0051548175456782
48.26199367997702,0.0047554625273707
48.290721057167474,0.0053117934671031
48.31944843435794,0.0055224417927312
48.3481758115484,0.0050365630025912
48.376903188738865,0.0048563467435565
48.40563056592933,0.0061591281719831
48.43435794311979,0.005678507401011
48.46308532031025,0.0056025299090586
48.49181269750071,0.005768862991976
48.520540074691176,0.0052538849125205
48.54926745188164,0.0049907917273735
48.577994829072104,0.0051184882437625
48.60672220626257,0.0051287212740488
48.635449583453024,0.0046273305188188
48.66417696064349,0.0051447528878571
48.69290433783395,0.0053523640317214
48.721631715024415,0.0049519284769089
48.75035909221488,0.0051810208524156
48.77908646940534,0.0050951698518277
48.8078138465958,0.00471805322176
48.83654122378626,0.00460107649874
48.86526860097673,0.0050169166859441
48.89399597816719,0.0048849738018147
48.922723355357654,0.0047658823545752
48.95145073254812,0.0050288115360723
48.980178109738574,0.0051252536976314
49.00890548692904,0.0046381206501458
49.0376328641195,0.0048984859733799
49.066360241309965,0.0049452642504259
49.09508761850043,0.0051072808075231
49.12381499569089,0.0053755839130603
49.15254237288135,0.0052618708927844
49.18126975007181,0.0049174144502016
49.20999712726228,0.0050798030476072
49.23872450445274,0.0050983809249578
49.2674518816432,0.0047038985263457
49.29617925883367,0.0045468447092759
49.32490663602413,0.005358117830822
49.35363401321459,0.0047689128635936
49.38236139040505,0.0047706324876056
49.411088767595515,0.0050545454911338
49.43981614478598,0.0050512047502331
49.46854352197644,0.0048023439532489
49.4972708991669,0.0051119537009177
49.52599827635736,0.0053937664542706
49.55472565354783,0.0040489739528872
49.58345303073829,0.0055218464426654
49.612180407928754,0.0056052486356839
49.64090778511922,0.0048775432564738
49.669635162309675,0.0051958479216856
49.69836253950014,0.0058060887494483
49.7270899166906,0.0047645125639839
49.755817293881066,0.0049330093999389
49.78454467107153,0.0070019508417485
49.81327204826199,0.0089182851936432
49.84199942545245,0.0107162582455827
49.87072680264291,0.0141431926919269
49.89945417983338,0.0131264851192716
49.92818155702384,0.01420091061626
49.956908934214304,0.0151293888075867
49.98563631140477,0.0154832284501279
50.014363688595225,0.0153124687001177
50.04309106578569,0.0128187420732512
50.07181844297615,0.0107538819573208
50.100545820166616,0.0113750169845414
50.12927319735708,0.007094472661026
50.15800057454754,0.0071747379755745
50.186727951738,0.0075713427630461
50.21545532892846,0.0054880340114064
50.24418270611893,0.0046861055110256
50.27291008330939,0.0061312528915093
50.301637460499855,0.0052584429746847
50.33036483769032,0.0054523327169427
50.359092214880775,0.0059107860955918
50.38781959207124,0.0053671090873708
50.4165469692617,0.0050384131058636
50.445274346452166,0.0053024568455459
50.47400172364263,0.0049176476514693
50.50272910083309,0.0047137314281148
50.53145647802355,0.0049272712090372
50.560183855214014,0.0046696521417373
50.58891123240448,0.0047931941885667
50.61763860959494,0.0052648837174839
50.646365986785405,0.0050656421431999
50.67509336397587,0.0049277156778042
50.703820741166325,0.0051863785601981
50.73254811835679,0.0052412382626933
50.76127549554725,0.0048335578301387
50.79000287273771,0.0050724971974664
50.81873024992818,0.0060541342633627
50.84745762711864,0.0053660135486473
50.8761850043091,0.0051081197846353
50.90491238149957,0.0058171181051177
50.93363975869003,0.0051451002218767
50.96236713588049,0.0044935136403023
50.991094513070955,0.0062250916755468
51.01982189026142,0.0057030684591559
51.048549267451875,0.006090808294954917
51.07727664464234,0.0103189139308703
51.1060040218328,0.0059200654481817
51.134731399023266,0.0038841966156725
51.16345877621373,0.0059271288903017
51.192186153404194,0.0059405794726112
51.22091353059465,0.0049931732162997
51.249640907785114,0.0053830262088782
51.27836828497558,0.0054295758031129
51.30709566216604,0.0050059870284395
51.335823039356505,0.0047789933584047
51.36455041654697,0.0055586982099327
51.393277793737425,0.0046520896969604
51.42200517092789,0.0040662454860931
51.45073254811835,0.0048149701143832
51.47945992530882,0.0048810576987093
51.50818730249928,0.0041550131229121
51.536914679689744,0.0054371235139284
51.5656420568802,0.0048677661811525
51.594369434070664,0.0045093211133313
51.62309681126113,0.0050520088405584
51.65182418845159,0.0053048731054413
51.680551565642055,0.0047761495507558
51.70927894283252,0.0047124122809416
51.738006320022976,0.0040524572097479
51.76673369721344,0.0059013557024997
51.7954610744039,0.0050589940438971
51.82418845159437,0.0058608281752024
51.85291582878483,0.0041591820806815
51.881643205975294,0.0039249218378508
51.91037058316575,0.0049043694356105
51.939097960356214,0.0048828641789932
51.96782533754668,0.0048626758101868
51.99655271473714,0.0048684352468731
52.025280091927605,0.0048249044906269
52.05400746911807,0.0048921309989975
52.082734846308526,0.0050650599425825
52.11146222349899,0.0051766000506915
52.14018960068945,0.0049657537497764
52.16891697787992,0.0049549760155021
52.19764435507038,0.0051843493418064
52.22637173226085,0.0050156095789255
52.2550991094513,0.0048890768477481
52.283826486641765,0.005511133064509
52.31255386383223,0.0045093279110468
52.34128124102269,0.0042139429531275
52.37000861821315,0.0048390177951636
52.39873599540362,0.0049567448128272
52.42746337259408,0.0046443713674599
52.45619074978454,0.0050734517076908
52.484918126975,0.0050148800441377
52.51364550416547,0.0049028244249158
52.54237288135593,0.0052006979439021
52.571100258546394,0.0053133028889496
52.59982763573685,0.0046315940093074
52.628555012927315,0.004842850545155
52.65728239011778,0.0057078170024495
52.68600976730824,0.0044376707443387
52.714737144498706,0.0054175675914049
52.74346452168917,0.006266294738093
52.772191898879626,0.0047368499165648
52.80091927607009,0.0047512449861206
52.82964665326055,0.0056165532226514
52.85837403045102,0.0046042607974705
52.88710140764148,0.0046130809977527
52.915828784831945,0.0042046792727655
52.9445561620224,0.005310295872581
52.973283539212865,0.004897925027738
53.00201091640333,0.0050212410565198
53.03073829359379,0.0050524213108345
53.059465670784256,0.0050261496445188
53.08819304797471,0.0042248920908244
53.116920425165176,0.0052430985267995
53.14564780235564,0.0057127808605848
53.174375179546104,0.0046733815869128
53.20310255673657,0.0051455869218836
53.23182993392703,0.0054287552914475
53.26055731111749,0.0051510959803251
53.28928468830795,0.0052599035364455
53.318012065498415,0.0054553448297803
53.34673944268888,0.0049752652726616
53.37546681987934,0.0042534728836381
53.404194197069806,0.0062787457504287
53.43292157426026,0.005199511101661
53.46164895145073,0.004895950836358
53.49037632864119,0.0053097831248176
53.519103705831654,0.0052505749567727
53.54783108302212,0.0050651349107896
53.57655846021258,0.0053294857638835
53.60528583740304,0.0051259688064733
53.6340132145935,0.0045682915223828
53.662740591783965,0.0050074142720554
53.69146796897443,0.00578206853013
53.72019534616489,0.0042070996765269
53.74892272335536,0.005811042049446
53.77765010054581,0.0119960421187151
53.80637747773628,0.0119753424954969
53.83510485492674,0.01302751775041
53.8638322321172,0.0145505837838857
53.89255960930767,0.0144218169103113
53.92128698649813,0.0147668188942167
53.95001436368859,0.0145743195237535
53.97874174087905,0.0132038115572998
54.007469118069515,0.0124298120879564
54.03619649525998,0.0100665099945018
54.06492387245044,0.0084117175072674
54.09365124964091,0.0093084218484197
54.12237862683136,0.0080954159799717
54.15110600402183,0.0082750934121669
54.17983338121229,0.0033424407287054
54.208560758402754,0.0045241790398264
54.23728813559322,0.0055717364974668
54.26601551278368,0.0048841636019449
54.29474288997414,0.0049693852181372
54.3234702671646,0.0050716657851503
54.352197644355066,0.0047476145089302
54.38092502154553,0.0047646212714695
54.40965239873599,0.0050279010899247
54.43837977592646,0.0051960469409533
54.46710715311691,0.0050170210633363
54.49583453030738,0.0051892376368715
54.52456190749784,0.0052250985203016
54.553289284688304,0.0050847211461004
54.58201666187877,0.00512465534492
54.61074403906923,0.0049751923453076
54.63947141625969,0.0045613660199124
54.66819879345015,0.0043195314306677
54.696926170640616,0.0054737537950421
54.72565354783108,0.0051688473649244
54.75438092502154,0.0049811719261059
54.78310830221201,0.0052761175477441
54.81183567940246,0.0052495905408224
54.84056305659293,0.0048791624207608
54.86929043378339,0.0053729456187922
54.898017810973855,0.0052388356734593
54.92674518816432,0.0047330630199173
54.95547256535478,0.0051563132441657
54.98419994254524,0.0054942330337861
55.0129273197357,0.0052059099698657
55.041654696926166,0.0049754379026062
55.07038207411663,0.0050776612534307
55.09910945130709,0.0047111077778953
55.12783682849756,0.0038128997603143
55.156564205688014,0.0059870753992002
55.18529158287848,0.0049595287276629
55.21401896006894,0.0038616586524843
55.242746337259405,0.0059689748075321
55.27147371444987,0.0053611578332397
55.30020109164033,0.0050966738216413
55.32892846883079,0.0052321494039629
55.35765584602125,0.0053684819568051
55.38638322321171,0.0047297873528191
55.41511060040218,0.0051494358168472
55.44383797759264,0.0055603189281803
55.47256535478311,0.0047481572197182
55.50129273197357,0.0043816880685706
55.53002010916403,0.0056933426821539
55.55874748635449,0.0043885839494363
55.587474863544955,0.0046939682750478
55.61620224073542,0.0051389112379464
55.64492961792588,0.0050894812343375
55.67365699511634,0.005152002677952
55.7023843723068,0.0054740626071957
55.731111749497266,0.0053485925135479
55.75983912668773,0.0047609063526512
55.788566503878194,0.0048526884019791
55.81729388106866,0.0052285324236601
55.846021258259114,0.005161297913766
55.87474863544958,0.004897697828563
55.90347601264004,0.0052553812313744
55.932203389830505,0.0052109643362755
55.96093076702097,0.0048612430932013
55.98965814421143,0.005560261205968
56.01838552140189,0.0046631321842586
56.04711289859235,0.0047300982365626
56.07584027578282,0.0048597889072943
56.10456765297328,0.0059165592226483
56.133295030163744,0.0062817981173085
56.16202240735421,0.0039259493086837
56.190749784544664,0.0055016222637712
56.21947716173513,0.0051486315403405
56.24820453892559,0.0049404291919515
56.276931916116055,0.0055019971205032
56.30565929330652,0.0052044246244375
56.33438667049698,0.004881013326091
56.36311404768744,0.0054275626317119
56.3918414248779,0.0055322369782493
56.42056880206837,0.0054531140754615
56.44929617925883,0.0056837519053458
56.478023556449294,0.0054379334854036
56.50675093363976,0.005120682465544
56.535478310830214,0.0054505841600274
56.56420568802068,0.0054959191727313
56.59293306521114,0.0049151331197786
56.621660442401605,0.0046188078504892
56.65038781959207,0.0050023468977344
56.67911519678253,0.0051372296754386
56.70784257397299,0.0044596307573614
56.73656995116345,0.0051858847621277
56.76529732835392,0.0050414739563455
56.79402470554438,0.0047274439350604
56.82275208273485,0.0050039364847824
56.85147945992531,0.0053395409645729
56.880206837115765,0.005352374816258
56.90893421430623,0.0055870831160489
56.93766159149669,0.0055901350508349
56.96638896868715,0.0053554742393841
56.99511634587762,0.0054814064987057
57.02384372306808,0.0060443703373829
57.05257110025854,0.0054563749226373
57.081298477449,0.0052309364399939
57.11002585463947,0.0055224611717877
57.13875323182993,0.0053894134241598
57.167480609020394,0.00500041309474
57.19620798621086,0.0056696628398109
57.224935363401315,0.0055341833419188
57.25366274059178,0.0026607152198721
57.28239011778224,0.0084433095717794
57.311117494972706,0.0091161090653464
57.33984487216317,0.0076877716724356
57.36857224935363,0.0083479304024966
57.39729962654409,0.0085607565153517
57.42602700373455,0.0082831917298909
57.45475438092502,0.0084492661399439
57.48348175811548,0.0087670337868876
57.512209135305945,0.0075543061680522
57.54093651249641,0.0054583217520659
57.569663889686865,0.005355539939625
57.59839126687733,0.0053244942285163
57.62711864406779,0.0050116224587358
57.655846021258256,0.004902357672547
57.68457339844872,0.004928399298325
57.71330077563918,0.0046605421827937
57.74202815282964,0.0052640542743285
57.770755530020104,0.0054917408041114
57.79948290721057,0.0049372063333877
57.82821028440103,0.0048477832496309
57.856937661591495,0.0059696525743026
57.88566503878196,0.0068220747192905
57.914392415972415,0.0096402855433392
57.94311979316288,0.0123188502378451
57.97184717035334,0.0135235206952668
58.000574547543806,0.0144011488034818
58.02930192473427,0.0153928125606912
58.05802930192473,0.0151375960741719
58.08675667911519,0.0154811230219985
58.115484056305654,0.0141468452120133
58.14421143349612,0.0122223339328911
58.17293881068658,0.0119621146768422
58.201666187877045,0.0078265477017503
58.23039356506751,0.0074403059588522
58.259120942257965,0.0079717405628364
58.28784831944843,0.0068678237707255
58.31657569663889,0.0064989599815691
58.34530307382936,0.0064247941747102
58.37403045101982,0.0061035772103271
58.40275782821029,0.0063214937916404
58.43148520540074,0.0058955936213073
58.4602125825912,0.0050566126425265
58.48893995978167,0.0075631850882194
58.51766733697213,0.006275213958153
58.546394714162595,0.0051406026995216
58.57512209135306,0.0055116183093096
58.603849468543515,0.00568820749434
58.63257684573398,0.005767045267091
58.66130422292444,0.0058627034207998
58.69003160011491,0.0058309103994985
58.71875897730537,0.0053535356870863
58.747486354495834,0.0053397250946862
58.77621373168629,0.0059159050525301
58.804941108876754,0.0051448944376406
58.83366848606722,0.0051094632639274
58.86239586325768,0.005216191222775
58.891123240448145,0.0052049023957124
58.9198506176386,0.0053110798288792
58.948577994829066,0.0058153723590242
58.97730537201953,0.0050975387577259
59.00603274920999,0.0045059466636291
59.03476012640046,0.005033731778603
59.06348750359092,0.0053568131561081
59.09221488078138,0.0050374567613012
59.12094225797184,0.0049931456082483
59.149669635162304,0.0052306868010334
59.17839701235277,0.0047630163352183
59.20712438954323,0.0049996766770022
59.235851766733695,0.0060079163175509
59.26457914392415,0.004429747314432
59.293306521114616,0.0049218327516678
59.32203389830508,0.0052513952825722
59.35076127549554,0.0052460726836742
59.37948865268601,0.0054680960865925
59.40821602987647,0.0059099695758795
59.43694340706693,0.0054584749787615
59.46567078425739,0.0049667099517662
59.494398161447855,0.0051975657292052
59.52312553863832,0.0054844369920027
59.55185291582878,0.0051985102332551
59.580580293019246,0.0053651606807806
59.6093076702097,0.0053657150373884
59.638035047400166,0.0047825454408153
59.66676242459063,0.0048157402511573
59.69548980178109,0.0055461157747313
59.72421717897156,0.0044707349910429
59.75294455616202,0.004741663490699
59.78167193335248,0.0051361138920068
59.81039931054294,0.0048528870667205
59.839126687733405,0.004927026767376
59.86785406492387,0.0052750180639676
59.89658144211433,0.0053023301938909
59.9253088193048,0.0057537084091591
59.95403619649525,0.0050134601482637
59.98276357368571,0.0070462932800487
60.01149095087618,0.0066144686919647
60.04021832806664,0.0059415791852802
60.06894570525711,0.0064922563778478
60.09767308244757,0.0063522343073563
60.12640045963803,0.006390797855808
60.15512783682849,0.0063489865382837
60.183855214018955,0.0056820080898876
60.21258259120942,0.005099842418889
60.24130996839988,0.005318568177396
60.270037345590346,0.0053688393657507
60.2987647227808,0.0051210565987111
60.327492099971266,0.0052142384593104
60.35621947716173,0.0051590053484505
60.384946854352194,0.0048300820015611
60.41367423154266,0.0049547724485909
60.44240160873312,0.0052431833715926
60.47112898592358,0.0050110246568844
60.49985636311404,0.0049520745111787
60.528583740304505,0.0049666731762155
60.55731111749497,0.0047982349757322
60.58603849468543,0.0047109880679683
60.614765871875896,0.0049361560557529
60.64349324906635,0.0050830339861921
60.672220626256816,0.0048029874620926
60.70094800344728,0.0049866203911443
60.729675380637744,0.0051619197562402
60.75840275782821,0.0051122458377048
60.78713013501867,0.0051092040201306
60.81585751220913,0.0054027772719163
60.84458488939959,0.0050947769166463
60.873312266590055,0.0041808132959582
60.90203964378052,0.0056329205336177
60.93076702097098,0.0055209756448808
60.959494398161446,0.0049044745199595
60.9882217753519,0.0052441196597758
61.01694915254237,0.0057426943352715
61.04567652973283,0.0045245693201578
61.074403906923294,0.0051851496126937
61.10313128411376,0.0059771397775761
61.13185866130422,0.0036865573990751
61.16058603849468,0.0035564175728785
61.18931341568514,0.0078532368830467
61.218040792875605,0.0043286095677913
61.24676817006607,0.0045697340384512
61.27549554725653,0.0050407003605166
61.304222924447,0.0045372037462191
61.33295030163745,0.0045899294070283
61.36167767882792,0.005470310685169
61.39040505601838,0.0051020982090408
61.41913243320885,0.0048749807947052
61.44785981039931,0.0051319207251012
61.47658718758977,0.0053101425169589
61.50531456478023,0.0039980595831224
61.53404194197069,0.0046710918904731
61.56276931916115,0.0037159054753992497
61.59149669635162,0.003952337131333275
61.62022407354208,0.00726470493121142
61.64895145073255,0.0035632367752383904
61.677678827923,0.004816582458491414
61.70640620511347,0.0024600328240786
61.73513358230393,0.0069229322399093
61.763860959494394,0.0047362508491775
61.79258833668486,0.0048954191318552
61.82131571387532,0.0049156595514437
61.85004309106578,0.0050556747041022
61.87877046825624,0.0062195909808556
61.907497845446706,0.0028600313587192
61.93622522263717,0.0040162120250433
61.96495259982763,0.019551855819413
61.9936799770181,0.0161924442807252
62.02240735420855,0.01702106102149455
62.05113473139902,0.0212394611910333
62.07986210858948,0.0226390431556121
62.108589485779945,0.0184873496571404
62.13731686297041,0.0195665226366896
62.16604424016087,0.0189209490723235
62.19477161735133,0.0152527160182899
62.22349899454179,0.0109067898532129
62.252226371732256,0.0109467344887011
62.28095374892272,0.0070692076147781
62.30968112611318,0.0062452196102709
62.33840850330365,0.0064464733924002
62.367135880494104,0.0056766073691468
62.39586325768457,0.0052702341243759
62.42459063487503,0.0052966959188157
62.453318012065495,0.0051844579663512
62.48204538925596,0.0046976547232876
62.51077276644642,0.0044953116814915
62.53950014363688,0.0045976963797442
62.56822752082734,0.0059881676485378
62.596954898017806,0.0042787553404102
62.62568227520827,0.0042204587779729
62.65440965239873,0.0053921524719017
62.6831370295892,0.0049658056989544
62.711864406779654,0.0049685863487943
62.74059178397012,0.0055102368368092
62.76931916116058,0.0053423418034478
62.798046538351045,0.0044744415244489
62.82677391554151,0.0052838414452641
62.85550129273197,0.0055839238202568
62.88422866992243,0.0042683698947849
62.91295604711289,0.0048568993290174
62.94168342430336,0.0048422013222959
62.97041080149382,0.0037769312645047
62.99913817868429,0.004714860791607
63.02786555587475,0.0056943316545786
63.0565929330652,0.004709024936345
63.08532031025567,0.0049488020306985
63.11404768744613,0.0055038117027489
63.142775064636595,0.0045752134600354
63.17150244182706,0.0048272656211486
63.20022981901752,0.0066782639712079
63.22895719620798,0.0038770773212829
63.25768457339844,0.0043078533484371
63.28641195058891,0.004968716114802
63.31513932777937,0.0049292776715601
63.343866704969834,0.0044205267466028
63.3725940821603,0.0052771916112954
63.401321459350754,0.0052693955062484
63.43004883654122,0.0035191650667752
63.45877621373168,0.0047471703896392
63.487503590922145,0.0047797696884077
63.51623096811261,0.0045062700523642
63.54495834530307,0.0047153274489695
63.57368572249353,0.0048183569993658
63.60241309968399,0.0046048567021401
63.63114047687446,0.0047033850853624
63.65986785406492,0.0051974845403893
63.688595231255384,0.0044057161286163
63.71732260844585,0.0044215996091138
63.746049985636304,0.0047244972394465
63.77477736282677,0.0047587381878502
63.80350474001723,0.0046361577162266
63.832232117207695,0.00500003740056
63.86095949439816,0.0048676083664157
63.88968687158862,0.0044160091100942
63.91841424877908,0.004619348324468
63.94714162596954,0.0047895048966733
63.97586900316001,0.0047730406908591
64.00459638035046,0.0047381409231129
64.03332375754093,0.0048518729196064
64.06205113473139,0.004322075477781
64.09077851192185,0.0045235359907094
64.11950588911232,0.0051986319701443
64.14823326630278,0.0044834263565862
64.17696064349325,0.0043342641933494
64.20568802068371,0.0054615503190448
64.23441539787417,0.0051986001532079
64.26314277506464,0.0056150267631605
64.2918701522551,0.0062208555767967
64.32059752944556,0.0059585704895366
64.34932490663601,0.0054904721385206
64.37805228382648,0.0056728002178773
64.40677966101694,0.0055073347077944
64.4355070382074,0.0055501905943652
64.46423441539787,0.0055253963038359
64.49296179258833,0.0048650096010123
64.5216891697788,0.004554674906801
64.55041654696926,0.0046354565720812
64.57914392415972,0.0046210380459508
64.60787130135019,0.0045174304293476
64.63659867854065,0.0045449061946015
64.66532605573111,0.0048438361354262
64.69405343292156,0.0049079769975068
64.72278081011203,0.0046034858310604
64.75150818730249,0.0046990989817267
64.78023556449295,0.0048470222247971
64.80896294168342,0.0050238338660557
64.83769031887388,0.0051675222187121
64.86641769606435,0.0051575470386642
64.89514507325481,0.0050645599684623
64.92387245044527,0.0050624963376327
64.95259982763574,0.0052696142473321
64.9813272048262,0.0051278232456629
65.01005458201665,0.0046738224149351
65.03878195920711,0.0057264855876747
65.06750933639758,0.0054682310097685
65.09623671358804,0.0052575157094392
65.1249640907785,0.005559142824736
65.15369146796897,0.0056666642540177
65.18241884515943,0.0050913863977336
65.2111462223499,0.0050751946511914
65.23987359954036,0.0056392920117845
65.26860097673082,0.0052034441493472
65.29732835392129,0.005070398672187
65.32605573111175,0.0054527100048904
65.3547831083022,0.0048278849870872
65.38351048549266,0.004720984773183
65.41223786268313,0.0053464739225018
65.44096523987359,0.005070882444984
65.46969261706406,0.0040684893308387
65.49841999425452,0.0058232892033962
65.52714737144498,0.0051212380648863
65.55587474863545,0.0047610704104903
65.58460212582591,0.005375746242862
65.61332950301637,0.0055997023546035
65.64205688020684,0.0047745045424391
65.6707842573973,0.0050446813413605
65.69951163458775,0.0055829299894795
65.72823901177821,0.0056155523859209
65.75696638896868,0.0052661567474252
65.78569376615914,0.0053806750458027
65.8144211433496,0.0050551573638515
65.84314852054007,0.0043385465698965
65.87187589773053,0.0082304480283673
65.900603274921,0.0143197001095161
65.92933065211146,0.0137061890694115
65.95805802930192,0.0184121668007208
65.98678540649239,0.0171496186017408
66.01551278368285,0.0165760143202544
66.0442401608733,0.0183156024653249
66.07296753806376,0.0180737506248534
66.10169491525423,0.0147803716723988
66.13042229244469,0.0134113469132215
66.15914966963516,0.0104356190488397
66.18787704682562,0.0089189009525535
66.21660442401608,0.0070970706365509
66.24533180120655,0.0069794695847815
66.27405917839701,0.0066860040971156
66.30278655558747,0.0057908372386719
66.33151393277794,0.0068333784875269
66.3602413099684,0.0044647376118168
66.38896868715885,0.0052480932487208
66.41769606434931,0.0059197631445362
66.44642344153978,0.0058819460502149
66.47515081873024,0.0057160729291899
66.5038781959207,0.0052786836467422
66.53260557311117,0.0054730902303233
66.56133295030163,0.0052577257216402
66.5900603274921,0.0052970086131494
66.61878770468256,0.0055101453636248
66.64751508187302,0.0051650430622975
66.67624245906349,0.004983467952992
66.70496983625395,0.0054116226547565
66.7336972134444,0.0055087788678464
66.76242459063486,0.0052330844767512
66.79115196782533,0.0054401916316881
66.81987934501579,0.0052154179238646
66.84860672220626,0.0052154697187104
66.87733409939672,0.0054130811091497
66.90606147658718,0.0058253710006769
66.93478885377765,0.0056606373021228
66.96351623096811,0.0048219412599744
66.99224360815857,0.0055020126962179
67.02097098534904,0.0054377240476767
67.0496983625395,0.0050447158494184
67.07842573972995,0.0053523972780679
67.10715311692041,0.0052083596283001
67.13588049411088,0.00486170125174
67.16460787130134,0.0053740099353453
67.1933352484918,0.0057996532101405
67.22206262568227,0.0044134141836057
67.25079000287273,0.0050240342889496
67.2795173800632,0.0054632120306964
67.30824475725366,0.0053093473813217
67.33697213444412,0.0052531211590748
67.36569951163459,0.0055627423834923
67.39442688882505,0.0051292874194048
67.4231542660155,0.0049135449992756
67.45188164320597,0.0059977311772321
67.48060902039643,0.005505897197874
67.50933639758689,0.0041572484856524
67.53806377477736,0.0053886004473846
67.56679115196782,0.0052521675050726
67.59551852915828,0.0047932781026186
67.62424590634875,0.0053263428264865
67.65297328353921,0.0051924652697352
67.68170066072967,0.0049931945545112
67.71042803792014,0.0055669294184886
67.7391554151106,0.0061262322905318
67.76788279230105,0.0046798810596175
67.79661016949152,0.0052227134874022
67.82533754668198,0.0055918443363702
67.85406492387244,0.0054955612184852
67.8827923010629,0.0054535742703832
67.91151967825337,0.0056297113446613
67.94024705544383,0.0055266217700712
67.9689744326343,0.0051550156550995
67.99770180982476,0.0049838881260842
68.02642918701522,0.0050471400210996
68.05515656420569,0.0047326034876989
68.08388394139615,0.0052345685824596
68.1126113185866,0.0052476984413269
68.14133869577707,0.0050097655028543
68.17006607296753,0.0051759605261238
68.19879345015799,0.0055139668724245
68.22752082734846,0.0047007287522744
68.25624820453892,0.0048776349883549
68.28497558172938,0.0049452629738993
68.31370295891985,0.0057837102113538
68.34243033611031,0.0055688667544983
68.37115771330078,0.0040546473221636
68.39988509049124,0.0053831589181698
68.4286124676817,0.0051646198291932
68.45733984487215,0.0052183177276379
68.48606722206262,0.004894714766901
68.51479459925308,0.0044399545045103
68.54352197644354,0.0049403717768099
68.572249353634,0.0051434389449139
68.60097673082447,0.0048654744171081
68.62970410801493,0.0047674940683673
68.6584314852054,0.0050902855703765
68.68715886239586,0.0051388663138169
68.71588623958633,0.005007265022349
68.74461361677679,0.0050473863615116
68.77334099396725,0.0052056185949946
68.8020683711577,0.0049190762372718
68.83079574834817,0.0047498388485377
68.85952312553863,0.0057383085387675
68.8882505027291,0.0056316667060415
68.91697787991956,0.0050769488452548
68.94570525711002,0.0057558884461007
68.97443263430048,0.0058744432413771
69.00316001149095,0.0054510384562374
69.03188738868141,0.0063320862851643
69.06061476587188,0.0060753175010983
69.08934214306234,0.0052017467803381
69.1180695202528,0.0055498787875453
69.14679689744325,0.0059646314166432
69.17552427463372,0.0039916305519426
69.20425165182418,0.0049069808140309
69.23297902901464,0.0054464376220302
69.2617064062051,0.0050707693051011
69.29043378339557,0.0049454077661784
69.31916116058603,0.0053986099620943
69.3478885377765,0.0052452084353203
69.37661591496696,0.0050529889907926
69.40534329215743,0.0054870902424326
69.43407066934789,0.0048172194108051
69.46279804653835,0.0046512223703606
69.4915254237288,0.0051193762999924
69.52025280091927,0.0052874363811984
69.54898017810973,0.0050487073884506
69.5777075553002,0.0051449941372215
69.60643493249066,0.0054630600649726
69.63516230968112,0.0057062849611639
69.66388968687158,0.0048239877304193
69.69261706406205,0.0049889669760105
69.72134444125251,0.0063051179276055
69.75007181844298,0.0049554706211833
69.77879919563344,0.005386230870493
69.8075265728239,0.0057312060424487
69.83625395001435,0.0048850021182841
69.86498132720482,0.0050544746051885
69.89370870439528,0.0056501578913958
69.92243608158574,0.005241772739738
69.95116345877621,0.0044796189832135
69.97989083596667,0.0060705140417007
70.00861821315713,0.0062497544193672
70.0373455903476,0.010389371505497
70.06607296753806,0.0135648036499305
70.09480034472853,0.013602850472071
70.12352772191899,0.0136393615341492
70.15225509910945,0.0141751786024623
70.1809824762999,0.0164055335921275
70.20970985349037,0.0198079194738628
70.23843723068083,0.0152467233381721
70.2671646078713,0.013370249750368
70.29589198506176,0.014998326574958
70.32461936225222,0.0141541597249737
70.35334673944269,0.0141774725224506
70.38207411663315,0.0131529077479789
70.41080149382361,0.0104052806092621
70.43952887101408,0.0088749477030484
70.46825624820454,0.0090740352038905
70.496983625395,0.009082999344932
70.52571100258545,0.0065347907407976
70.55443837977592,0.0055143014266743
70.58316575696638,0.0050902086419728
70.61189313415684,0.0049747264694185
70.64062051134731,0.0053430092330873
70.66934788853777,0.0054928249950155
70.69807526572824,0.0053343643882464
70.7268026429187,0.005492466354494
70.75553002010916,0.0055264205589711
70.78425739729963,0.0050019504763684
70.81298477449009,0.005243039608862
70.84171215168054,0.0054455092194786
70.870439528871,0.0049718010142249
70.89916690606147,0.0045628302790793
70.92789428325193,0.0057009009890049
70.9566216604424,0.0054479123064521
70.98534903763286,0.0048861335881988
71.01407641482332,0.0058545418815962
71.04280379201379,0.0056011109301067
71.07153116920425,0.0043235286760565
71.10025854639471,0.0055102285450147
71.12898592358518,0.005192154469732
71.15771330077564,0.0044542856166891
71.18644067796609,0.005147859939064
71.21516805515655,0.0055390501863453
71.24389543234702,0.0051440560680391
71.27262280953748,0.0048521851219239
71.30135018672794,0.0050479224900335
71.33007756391841,0.0052054900380455
71.35880494110887,0.0050666894438757
71.38753231829934,0.0054008534802518
71.4162596954898,0.0054091942732393
71.44498707268026,0.0048524259946097
71.47371444987073,0.0049006666920363
71.50244182706119,0.0050859260252321
71.53116920425164,0.0047185660839289
71.5598965814421,0.0046312568988985
71.58862395863257,0.0048079881437248
71.61735133582303,0.0054260482377466
71.6460787130135,0.0050821036590844
71.67480609020396,0.0052165770551461
71.70353346739442,0.0053672606288308
71.73226084458489,0.0051758745628701
71.76098822177535,0.0050673976032598
71.78971559896581,0.0056023567919179
71.81844297615628,0.0049388104442923
71.84717035334674,0.0049867236073799
71.87589773053719,0.0057228178230419
71.90462510772765,0.0055655514160918
71.93335248491812,0.0044908920437098
71.96207986210858,0.0053735957810047
71.99080723929904,0.0054512702459092
72.01953461648951,0.004659443713117
72.04826199367997,0.0054945299134962
72.07698937087044,0.0060944474054595
72.1057167480609,0.0046801464363662
72.13444412525136,0.0050615916241397
72.16317150244183,0.0067355973490351
72.19189887963229,0.004383316624273
72.22062625682274,0.0049366828436093
72.2493536340132,0.0055036289902967
72.27808101120367,0.0050445469242868
72.30680838839413,0.0047459481622191
72.3355357655846,0.0054920421463
72.36426314277506,0.0053627487510821
72.39299051996552,0.0051143952085907
72.42171789715599,0.0052255039961909
72.45044527434645,0.0054952947075806
72.47917265153691,0.0054151535801831
72.50790002872738,0.0052906157282701
72.53662740591784,0.0053907444352567
72.56535478310829,0.0055727535198846
72.59408216029875,0.0048617048364032
72.62280953748922,0.0050910877029803
72.65153691467968,0.0052778184701587
72.68026429187015,0.0048810742137233
72.70899166906061,0.0048874064197271
72.73771904625107,0.0058180230823684
72.76644642344154,0.0053609366187818
72.795173800632,0.0048109484787323
72.82390117782246,0.0059203406324413
72.85262855501293,0.0055044856140191
72.88135593220339,0.0052289188242035
72.91008330939384,0.0055421426849189
72.9388106865843,0.0056086954284774
72.96753806377477,0.0052484341473853
72.99626544096523,0.0055018504415815
73.0249928181557,0.0056199366401411
73.05372019534616,0.0052751366793216
73.08244757253662,0.0049341188038012
73.11117494972709,0.0050169328484978
73.13990232691755,0.0049185495173318
73.16862970410801,0.0045608016586048
73.19735708129848,0.0054123432205018
73.22608445848894,0.005214467316326
73.25481183567939,0.0051580136209887
73.28353921286985,0.0053111532838848
73.31226659006032,0.0053525269293438
73.34099396725078,0.0050471151738056
73.36972134444125,0.0054386134570802
73.39844872163171,0.005781297037601
73.42717609882217,0.0053571101770247
73.45590347601264,0.0049877709998844
73.4846308532031,0.0054657505028095
73.51335823039356,0.0051035126025752
73.54208560758403,0.0049847686116303
73.57081298477449,0.0051880996834024
73.59954036196494,0.0051165634375439
73.6282677391554,0.0048544848432813
73.65699511634587,0.0051982292642721
73.68572249353633,0.0051644138097066
73.7144498707268,0.0049190635173257
73.74317724791726,0.0046805053073506
73.77190462510772,0.0050017957234602
73.80063200229819,0.0050915290427077
73.82935937948865,0.0047842266711831
73.85808675667911,0.0052525429710797
73.88681413386958,0.0053875719302968
73.91554151106004,0.0049394007151512
73.94426888825049,0.0050850680744933
73.97299626544095,0.0053783076348243
74.00172364263142,0.0051420427981867
74.03045101982188,0.0045979960367257
74.05917839701235,0.0054951457558089
74.08790577420281,0.0064804811617108
74.11663315139327,0.0161496430227235
74.14536052858374,0.0220464840234786
74.1740879057742,0.0211693135335514
74.20281528296466,0.0226093883394311
74.23154266015513,0.0216691582374091
74.26027003734559,0.0206181512221243
74.28899741453604,0.0250485544942704
74.3177247917265,0.0192688154558941
74.34645216891697,0.0096843616529103
74.37517954610743,0.0091932878971644
74.4039069232979,0.0078302126481551
74.43263430048836,0.0065524856979075
74.46136167767882,0.0055757602042261
74.49008905486929,0.0055334366953618
74.51881643205975,0.0056480142199918
74.54754380925021,0.0061239452518969
74.57627118644068,0.0063619634012722
74.60499856363114,0.0047544585481009
74.63372594082159,0.0053897481020514
74.66245331801206,0.0053529246966873
74.69118069520252,0.005262125303554
74.71990807239298,0.0053926665562234
74.74863544958345,0.0053804123284433
74.77736282677391,0.0050035829357296
74.80609020396437,0.0050907413252666
74.83481758115484,0.0059263878617161
74.8635449583453,0.0047669299922515
74.89227233553576,0.0050508398694159
74.92099971272623,0.0055995750166051
74.94972708991669,0.0051227726821766
74.97845446710714,0.0045127177263816
75.0071818442976,0.0059774294312766
75.03590922148807,0.0054421309006147
75.06463659867853,0.0049644559583242
75.093363975869,0.0055965880343698
75.12209135305946,0.0054846482584586
75.15081873024992,0.0044884821225399
75.17954610744039,0.0058683870768105
75.20827348463085,0.0080276827763721
75.23700086182131,0.0080594694775473
75.26572823901178,0.0084604187832477
75.29445561620224,0.0082936652207991
75.32318299339269,0.0079144284413261
75.35191037058316,0.00856805772518
75.38063774777362,0.0089851718375192
75.40936512496408,0.0059130389825245
75.43809250215455,0.005316572939199
75.46681987934501,0.005398140077586
75.49554725653547,0.0052884568812776
75.52427463372594,0.0054311650708294
75.5530020109164,0.005708756538019
75.58172938810687,0.0054161442335781
75.61045676529733,0.0042407771055068
75.63918414248779,0.0078687132691354
75.66791151967824,0.0052615968825637
75.6966388968687,0.0030458670461962
75.72536627405917,0.00564004428445
75.75409365124963,0.0055267669105238
75.7828210284401,0.0052467959270295
75.81154840563056,0.0052841988020404
75.84027578282102,0.005709139763603
75.86900316001149,0.0054226115198983
75.89773053720195,0.0050147766789811
75.92645791439242,0.0059978846074125
75.95518529158288,0.0052084727699605
75.98391266877334,0.0043316305325991
76.01264004596379,0.007110845279788
76.04136742315426,0.0083437894528334
76.07009480034472,0.0082507999259389
76.09882217753518,0.0087184964143963
76.12754955472565,0.0090035863295524
76.15627693191611,0.0077558234674644
76.18500430910657,0.0089360566519021
76.21373168629704,0.0133043076829812
76.2424590634875,0.00193813234282
76.27118644067797,0.0044080118507592
76.29991381786843,0.0066042103147773
76.32864119505889,0.0053193456175831
76.35736857224934,0.0052702305336697
76.3860959494398,0.0052847482045193
76.41482332663027,0.0053841827924835
76.44355070382073,0.0053981226360705
76.4722780810112,0.00605902546836
76.50100545820166,0.0055941535186374
76.52973283539212,0.0051653209563067
76.55846021258259,0.0055696835386168
76.58718758977305,0.0056658064599054
76.61591496696352,0.0053945832206973
76.64464234415398,0.0055008279591346
76.67336972134443,0.005538873916715
76.70209709853489,0.0048180109644666
76.73082447572536,0.0051457098845399
76.75955185291582,0.0044425517984372
76.78827923010628,0.0061192314628352
76.81700660729675,0.0123341592304069
76.84573398448721,0.0159430496834302
76.87446136167767,0.0145761004770428
76.90318873886814,0.0146540835527476
76.9319161160586,0.0149445290154656
76.96064349324907,0.0148670638468128
76.98937087043953,0.0155211016281056
77.01809824762998,0.0126300344449697
77.04682562482044,0.0065389763935308
77.0755530020109,0.0049203036048614
77.10428037920137,0.0048801232116276
77.13300775639183,0.0051779547398781
77.1617351335823,0.0053105383848904
77.19046251077276,0.004811351779992
77.21918988796322,0.0045006199184555
77.24791726515369,0.0054510218590882
77.27664464234415,0.0051858972634066
77.30537201953462,0.0050637372834684
77.33409939672508,0.0052184676296277
77.36282677391553,0.0054123626468838
77.39155415110599,0.0054879766472253
77.42028152829646,0.0056642717263044
77.44900890548692,0.0056712698832264
77.47773628267738,0.0048998492963884
77.50646365986785,0.0058682280030902
77.53519103705831,0.006046278293064
77.56391841424877,0.0054807221264084
77.59264579143924,0.0052312330800664
77.6213731686297,0.0051991638816035
77.65010054582017,0.0057728089142022
77.67882792301063,0.0050433226643675
77.70755530020108,0.0046964570362197
77.73628267739154,0.00594225675137
77.765010054582,0.0050081097939202
77.79373743177247,0.0052847892859015
77.82246480896293,0.0054428292550022
77.8511921861534,0.0050247054526734
77.87991956334386,0.0049468702840225
77.90864694053433,0.0052959103543295
77.93737431772479,0.0053376081383789
77.96610169491525,0.0052059052309667
77.99482907210572,0.0052472251050019
78.02355644929618,0.0050598166950967
78.05228382648663,0.0047793320215101
78.0810112036771,0.0049302017748227
78.10973858086756,0.0051378996807743
78.13846595805802,0.0047887356800127
78.16719333524848,0.0070968172697661
78.19592071243895,0.010305101738527
78.22464808962941,0.0122930371084544
78.25337546681988,0.0129477689382131
78.28210284401034,0.0136282136146846
78.3108302212008,0.0147800830597951
78.33955759839127,0.0150423905533892
78.36828497558173,0.0153138410382524
78.39701235277218,0.0146103526778118
78.42573972996264,0.0125218826508066
78.4544671071531,0.0112853861145084
78.48319448434357,0.0115580524286575
78.51192186153403,0.0067449553758131
78.5406492387245,0.0066820058152378
78.56937661591496,0.0064716565882929
78.59810399310543,0.005595118699118
78.62683137029589,0.0057726956064787
78.65555874748635,0.0066545124261023
78.68428612467682,0.0060247329439638
78.71301350186728,0.0060421979808021
78.74174087905773,0.0065128751331139
78.7704682562482,0.0056403875650789
78.79919563343866,0.0052916242235606
78.82792301062912,0.0069012603027201
78.85665038781958,0.0059288815490602
78.88537776501005,0.0050751729644103
78.91410514220051,0.005745450115545
78.94283251939098,0.0058621200803111
78.97155989658144,0.0052393490788502
79.0002872737719,0.0059285657868953
79.02901465096237,0.0068225703938991
79.05774202815283,0.0036959728082071
79.08646940534328,0.0055702184058181
79.11519678253374,0.0056182989825976
79.14392415972421,0.0047422212369884
79.17265153691467,0.0053516261277121
79.20137891410513,0.0061851374015879
79.2301062912956,0.0057147482807122
79.25883366848606,0.0055797973198437
79.28756104567653,0.0065354957547164
79.31628842286699,0.005344672547814
79.34501580005745,0.0054580526671227
79.37374317724792,0.0061749104124043
79.40247055443838,0.0059667019308578
79.43119793162883,0.0054739706065971
79.4599253088193,0.0058308910395251
79.48865268600976,0.0057662655303738
79.51738006320022,0.0055749859792737
79.54610744039068,0.0060800184410153
79.57483481758115,0.0062134443085027
79.60356219477161,0.0055226098203215
79.63228957196208,0.0058372810345697
79.66101694915254,0.0059396713496808
79.689744326343,0.0058219698256255
79.71847170353347,0.0055392800723532
79.74719908072393,0.0057576776370232
79.77592645791438,0.005684998105185
79.80465383510484,0.0054033193012833
79.83338121229531,0.0056728000480838
79.86210858948577,0.0059993233706759
79.89083596667624,0.0057485515341874
79.9195633438667,0.0058451673156627
79.94829072105716,0.005938748265472
79.97701809824763,0.0056319426083541
80.00574547543809,0.0056649648239173
80.03447285262855,0.005806025782213
80.06320022981902,0.0055299624083522
80.09192760700948,0.0054363081725062
80.12065498419993,0.0057494901934197
80.1493823613904,0.0054126804225438
80.17810973858086,0.005167010838577
80.20683711577132,0.0055488532676834
80.23556449296179,0.0058918990253891
80.26429187015225,0.0050110385581027
80.29301924734271,0.0051000122449802
80.32174662453318,0.0057538547794921
80.35047400172364,0.0052771183492223
80.3792013789141,0.0055320478297793
80.40792875610457,0.0062441875887742
80.43665613329503,0.0059380570694394
80.46538351048548,0.0058430840437493
80.49411088767594,0.0059298927377015
80.52283826486641,0.0058991456290759
80.55156564205687,0.0064158227488614
80.58029301924734,0.0059121764417136
80.6090203964378,0.0052669112171976
80.63774777362826,0.0053875732126045
80.66647515081873,0.0054339988532497
80.69520252800919,0.0056711154287877
80.72392990519965,0.0054147706581013
80.75265728239012,0.0054543533918556
80.78138465958058,0.0054771819566315
80.81011203677103,0.004982304816593
80.8388394139615,0.0049286785407282
80.86756679115196,0.0061926632058371
80.89629416834242,0.0056124695187148
80.92502154553289,0.0051291074813571
80.95374892272335,0.0052191101768031
80.98247629991381,0.0054503800074883
81.01120367710428,0.0052651541530604
81.03993105429474,0.0053755804396322
81.0686584314852,0.0054706057118675
81.09738580867567,0.0044908124901628
81.12611318586613,0.0063343797651139
81.15484056305658,0.0060166951931977
81.18356794024704,0.0053034167593785
81.21229531743751,0.0053545795098933
81.24102269462797,0.0055598383116687
81.26975007181844,0.0056370799043828
81.2984774490089,0.0052821156093666
81.32720482619936,0.0057070679563007
81.35593220338983,0.0056068421249786
81.38465958058029,0.0052234548005906
81.41338695777075,0.0058152607859561
81.44211433496122,0.0057484899511592
81.47084171215168,0.0050185939532475
81.49956908934213,0.0056269973811288
81.5282964665326,0.0048250368317365
81.55702384372306,0.0048722176034887
81.58575122091352,0.005455318775932
81.61447859810399,0.0055629187848974
81.64320597529445,0.0053163449975992
81.67193335248491,0.0051384468147326
81.70066072967538,0.0054100702903426
81.72938810686584,0.0053750682444047
81.7581154840563,0.0052494534057243
81.78684286124677,0.0055292845602754
81.81557023843723,0.00565443712447
81.84429761562768,0.0051428097595342
81.87302499281815,0.0056580948985553
81.90175237000861,0.0057173377265064
81.93047974719907,0.005198737791266
81.95920712438954,0.0053380820444686
81.98793450158,0.0055514982102764
82.01666187877046,0.0054962935849998
82.04538925596093,0.005311332089311
82.07411663315139,0.0059041888936327
82.10284401034185,0.0081097381820922
82.13157138753232,0.009663586392416
82.16029876472278,0.0104526079876994
82.18902614191323,0.0121797175508314
82.2177535191037,0.0125015214093891
82.24648089629416,0.0130366504701941
82.27520827348462,0.0133210166103194
82.30393565067509,0.0131704120994118
82.33266302786555,0.0144344397084726
82.36139040505601,0.0114905538679653
82.39011778224648,0.009365080781569
82.41884515943694,0.0094262931482951
82.4475725366274,0.00752625874832
82.47629991381787,0.0072960918026275
82.50502729100832,0.0073167352857256
82.53375466819878,0.0068982794484999
82.56248204538925,0.0060106151073407
82.59120942257971,0.0059122589299025
82.61993679977017,0.00644417254427
82.64866417696064,0.0056443146449659
82.6773915541511,0.0054966237396537
82.70611893134156,0.0058979749336229
82.73484630853203,0.0059786677554478
82.76357368572249,0.0056534801544368
82.79230106291295,0.0056953426060637
82.82102844010342,0.0057100662690925
82.84975581729387,0.0053059041391252
82.87848319448433,0.0054262792445465
82.9072105716748,0.005656497639006
82.93593794886526,0.0052705427238011
82.96466532605572,0.0050407155424572
82.99339270324619,0.0052219941783596
83.02212008043665,0.0071340328443205
83.05084745762711,0.0046500854240765
83.07957483481758,0.0052228811744668
83.10830221200804,0.0058491117821439
83.1370295891985,0.0049440201612234
83.16575696638897,0.0031134283240773
83.19448434357942,0.0078888265860267
83.22321172076988,0.0051963916085477
83.25193909796035,0.0052099697848554
83.28066647515081,0.0055445296733323
83.30939385234127,0.0054001335416443
83.33812122953174,0.0052068077142951
83.3668486067222,0.005745325205391
83.39557598391266,0.0053955506614857
83.42430336110313,0.005151324314825
83.45303073829359,0.0058755112228232
83.48175811548406,0.0063976273937209
83.51048549267452,0.0046338298218193
83.53921286986497,0.0054390481046107
83.56794024705543,0.005644990354105
83.5966676242459,0.0051779648646398
83.62539500143636,0.005326985549138
83.65412237862682,0.0059762402698746
83.68284975581729,0.0048052851381628
83.71157713300775,0.0040959006093993
83.74030451019821,0.0072873801869477
83.76903188738868,0.0049934781305581
83.79775926457914,0.0048182893648142
83.8264866417696,0.0056884236429904
83.85521401896007,0.0050726885332162
83.88394139615052,0.0045332215998461
83.91266877334098,0.0059323651782426
83.94139615053145,0.0056167452214584
83.97012352772191,0.0050547551641239
83.99885090491237,0.0050298795993973
84.02757828210284,0.0053569369165562
84.0563056592933,0.0055064188557742
84.08503303648376,0.0053351869792535
84.11376041367423,0.0051777629516579
84.14248779086469,0.00492157024916
84.17121516805516,0.0047192169543787
84.19994254524562,0.0053789060876043
84.22866992243607,0.0049982665186459
84.25739729962653,0.0046848782742396
84.286124676817,0.0051244243786911
84.31485205400746,0.0055135145774053
84.34357943119792,0.0055413122778049
84.37230680838839,0.0054734849875107
84.40103418557885,0.0057169347455005
84.42976156276931,0.0062356641065946
84.45848893995978,0.0048204641526788
84.48721631715024,0.0054908749324487
84.5159436943407,0.005492975766373
84.54467107153117,0.0051101869024414
84.57339844872162,0.0055623744311277
84.60212582591208,0.0056832454240856
84.63085320310255,0.005256049787203
84.65958058029301,0.0054308106889471
84.68830795748347,0.00554645133098
84.71703533467394,0.0052634948342632
84.7457627118644,0.0052557582462281
84.77449008905486,0.0056492348605492
84.80321746624533,0.0053395600726855
84.83194484343579,0.0050906925919921
84.86067222062626,0.0055967049381767
84.88939959781672,0.0057605867096844
84.91812697500717,0.0043796580632764
84.94685435219763,0.0051707159577805
84.9755817293881,0.0053975790831553
85.00430910657856,0.0053813149668597
85.03303648376902,0.0054855228167973
85.06176386095949,0.005527846420248
85.09049123814995,0.0055338817333653
85.11921861534042,0.0055163222857678
85.14794599253088,0.0068943633785935
85.17667336972134,0.0080214128793503
85.2054007469118,0.0073814681534682
85.23412812410227,0.0090284139820784
85.26285550129272,0.0084734703129081
85.29158287848318,0.0075161483051872
85.32031025567365,0.008840075806404
85.34903763286411,0.0088566920110595
85.37776501005457,0.0050531230035337
85.40649238724504,0.0058616036886273
85.4352197644355,0.0058441795235081
85.46394714162597,0.0054235124667823
85.49267451881643,0.0056731754069282
85.52140189600689,0.0059613017181812
85.55012927319736,0.005591360724639
85.57885665038782,0.0052103466430337
85.60758402757827,0.0055839496968393
85.63631140476873,0.0057255128648526
85.6650387819592,0.0054363415490845
85.69376615914966,0.0054337237014824
85.72249353634012,0.0057964397458694
85.75122091353059,0.0060025676087293
85.77994829072105,0.0056123699260729
85.80867566791152,0.0059852479891494
85.83740304510198,0.0057552661481522
85.86613042229244,0.0058019132051474
85.8948577994829,0.0061308271141971
85.92358517667337,0.0059872381434701
85.95231255386382,0.005827349819417
85.98103993105428,0.0057850114893923
86.00976730824475,0.0059241569295916
86.03849468543521,0.0056977186043292
86.06722206262567,0.0055007737251516
86.09594943981614,0.0055996077512116
86.1246768170066,0.0049356051896701
86.15340419419707,0.007677443531654
86.18213157138753,0.0128364925687514
86.210858948578,0.0156139251753037
86.23958632576846,0.0149108335451259
86.26831370295892,0.0153321201933318
86.29704108014937,0.0183565562351561
86.32576845733983,0.0166997232728875
86.3544958345303,0.0168144075550724
86.38322321172076,0.0162382917710126
86.41195058891122,0.011798133722855
86.44067796610169,0.0090683606820852
86.46940534329215,0.0086087475139962
86.49813272048262,0.0074293525010041
86.52686009767308,0.0057011547426541
86.55558747486354,0.0064380322554211
86.584314852054,0.0064087273523268
86.61304222924447,0.0061784316756738
86.64176960643492,0.0057738336242752
86.67049698362538,0.0055767348449546
86.69922436081585,0.0076184184318448
86.72795173800631,0.006716402850379
86.75667911519677,0.0067675991175562
86.78540649238724,0.006718915199118
86.8141338695777,0.0069089760816836
86.84286124676817,0.0072935120309265
86.87158862395863,0.006738375583421
86.9003160011491,0.0062931055146868
86.92904337833956,0.0065113671717037
86.95777075553002,0.0061515246211504
86.98649813272047,0.0056426629222162
87.01522550991093,0.0057996840199198
87.0439528871014,0.0062125178108191
87.07268026429186,0.0060391446275669
87.10140764148233,0.0056844836586007
87.13013501867279,0.0056582923303097
87.15886239586325,0.0053110991798552
87.18758977305372,0.0055565788079487
87.21631715024418,0.0061548398547302
87.24504452743464,0.0057068950002518
87.27377190462511,0.0053624552818672
87.30249928181557,0.0055456132666336
87.33122665900602,0.005994588557212
87.35995403619648,0.0058631215761979
87.38868141338695,0.0057868336738592
87.41740879057741,0.0060298519214488
87.44613616776788,0.0058423996888825
87.47486354495834,0.0055431262618409
87.5035909221488,0.0057695504138417
87.53231829933927,0.0059046548952621
87.56104567652973,0.0057448073506035
87.5897730537202,0.0058843296135315
87.61850043091066,0.0060941870888451
87.64722780810112,0.0057577028978977
87.67595518529157,0.0055328761634978
87.70468256248203,0.0059937412319364
87.7334099396725,0.0057285661427217
87.76213731686296,0.0056064877947533
87.79086469405343,0.005741226575898
87.81959207124389,0.0055930590486862
87.84831944843435,0.005572402875865
87.87704682562482,0.0057577885776173
87.90577420281528,0.0056420909017354
87.93450158000574,0.0054189910614414
87.96322895719621,0.0053650314544266
87.99195633438667,0.0052734326176849
88.02068371157712,0.0051258893380859
88.04941108876758,0.0051289103258221
88.07813846595805,0.0055361599882016
88.10686584314851,0.0054538965258197
88.13559322033898,0.0044809831521019
88.16432059752944,0.0054602833192178
88.1930479747199,0.0062471305168351
88.22177535191037,0.0056797635102082
88.25050272910083,0.0053830993872986
88.2792301062913,0.005702457364142
88.30795748348176,0.0058524113488584
88.33668486067221,0.0050196272689101
88.36541223786267,0.0066130307897107
88.39413961505313,0.0058358885766092
88.4228669922436,0.0055591661322603
88.45159436943406,0.0062067171178045
88.48032174662453,0.0060263318874572
88.50904912381499,0.0047665848898176
88.53777650100545,0.0052690390256652
88.56650387819592,0.0056553941215058
88.59523125538638,0.0056921115429643
88.62395863257684,0.0056036125091345
88.65268600976731,0.0059433549801341
88.68141338695776,0.0059107450554431
88.71014076414822,0.0055465374559536
88.73886814133868,0.0065078985815452
88.76759551852915,0.0053324475892225
88.79632289571961,0.0055839889998231
88.82505027291008,0.0057780009127659
88.85377765010054,0.005766615953488
88.882505027291,0.0056448037882571
88.91123240448147,0.0058331656571638
88.93995978167193,0.006192327107721
88.9686871588624,0.0058681360957231
88.99741453605286,0.0052746231207242
89.02614191324331,0.0056931353740347
89.05486929043377,0.0060130978505367
89.08359666762424,0.0054300494122903
89.1123240448147,0.0056826325213678
89.14105142200516,0.0058226911073115
89.16977879919563,0.005089520260668
89.19850617638609,0.0048884226260049
89.22723355357655,0.0058719673459686
89.25596093076702,0.0055527799476401
89.28468830795748,0.0047837686633611
89.31341568514794,0.0056821147666066
89.34214306233841,0.0056775136658738
89.37087043952886,0.0053633643745965
89.39959781671932,0.00528057638335
89.42832519390979,0.0059851632176429
89.45705257110025,0.0047849236041693
89.48577994829071,0.0053145240695673
89.51450732548118,0.006149988720761
89.54323470267164,0.0052264385410574
89.5719620798621,0.0051416454203855
89.60068945705257,0.0059095764712996
89.62941683424303,0.005193451645028
89.6581442114335,0.0051269938836044
89.68687158862396,0.0054978345756893
89.71559896581441,0.0053590385795253
89.74432634300487,0.0050907348706656
89.77305372019534,0.0049980103846557
89.8017810973858,0.0052577432229747
89.83050847457626,0.0050752185724437
89.85923585176673,0.0049213061804217
89.88796322895719,0.0051967967492849
89.91669060614765,0.005377495161832
89.94541798333812,0.0051333242304772
89.97414536052858,0.0053418529932013
90.00287273771904,0.0054896382270072
90.03160011490951,0.0052081596196859
90.06032749209996,0.0063175400221274
90.08905486929042,0.005508958670944
90.11778224648089,0.0038313402623981
90.14650962367136,0.0150502486846903
90.1752370008618,0.0178586260108547
90.20396437805228,0.0195331810637646
90.23269175524274,0.0203771907917853
90.2614191324332,0.0192256357689531
90.29014650962368,0.0229813283944901
90.31887388681412,0.0222531686724703
90.3476012640046,0.0267502142328774
90.37632864119506,0.015830791251877
90.40505601838552,0.0141796432410678
90.43378339557596,0.0084841386298442
90.46251077276644,0.010467180541612
90.4912381499569,0.0085003544919974
90.51996552714736,0.007839699180421
90.54869290433784,0.005880533197988
90.57742028152828,0.005678118694424
90.60614765871875,0.007414941560026
90.63487503590922,0.0060809722609346
90.66360241309968,0.005965495649699
90.69232979029016,0.0044015563981393
90.7210571674806,0.0049700192750409
90.74978454467106,0.0058888453898394
90.77851192186152,0.0053920721167515
90.807239299052,0.0046286350893672
90.83596667624244,0.0071915807425194
90.86469405343291,0.0057439105987701
90.89342143062338,0.0039263664786864
90.92214880781384,0.0062743063585114
90.9508761850043,0.0059272483052216
90.97960356219475,0.0057338187805541
91.00833093938525,0.0053980950253391
91.0370583165757,0.0056668210974695
91.06578569376616,0.0057159806826113
91.0945130709566,0.0056934256584177
91.12324044814709,0.0060241441265737
91.15196782533754,0.0058029270425023
91.180695202528,0.0058593387679387
91.20942257971846,0.0061138150978968
91.23814995690891,0.0061958931517198
91.2668773340994,0.0059198170134723
91.29560471128984,0.0054972176671381
91.32433208848032,0.0060464698089955
91.35305946567078,0.0061756869037573
91.38178684286125,0.005798128259907
91.41051422005172,0.0057660569140397
91.43924159724216,0.005528106848998
91.46796897443262,0.0055088492325793
91.49669635162309,0.0055838354957804
91.52542372881356,0.0054697003870556
91.554151106004,0.0050229954601423
91.58287848319448,0.0047566168817128
91.61160586038494,0.0057470343620171
91.6403332375754,0.0052615476131614
91.66906061476588,0.0049460906531397
91.69778799195632,0.0051399097371829
91.7265153691468,0.0054442305624824
91.75524274633726,0.0055076025521385
91.78397012352772,0.0055055849971905
91.81269750071816,0.0058099735078856
91.84142487790864,0.0055711101065665
91.8701522550991,0.0052820163868492
91.89887963228956,0.006273162694229
91.92760700948004,0.0042475711802852
91.95633438667048,0.0049123689327246
91.98506176386095,0.0054317695919083
92.01378914105142,0.0051033878032178
92.04251651824188,0.0049442126151065
92.07124389543236,0.005174015698202
92.0999712726228,0.0057491528938529
92.12869864981326,0.0058913244457373
92.15742602700372,0.0054998765033671
92.1861534041942,0.0057333414045909
92.21488078138464,0.0059567637042639
92.24360815857511,0.0056128413899166
92.27233553576558,0.0057897810194112
92.30106291295604,0.0053630438580964
92.3297902901465,0.0052119441296537
92.35851766733695,0.0054947465270322
92.38724504452745,0.0059637102839984
92.4159724217179,0.0050883485658342
92.44469979890836,0.0045610969197175
92.4734271760988,0.0061587153194265
92.50215455328927,0.0054673393767382
92.53088193047974,0.005187654720841
92.5596093076702,0.0058889769755197
92.58833668486066,0.0060282280723594
92.61706406205111,0.005202881207475
92.6457914392416,0.0057301914001206
92.67451881643206,0.0053369284114726
92.70324619362252,0.0044130544792424
92.73197357081298,0.0060076317183639
92.76070094800345,0.0059336818198559
92.78942832519392,0.0049835729008382
92.81815570238436,0.0051529599564479
92.84688307957482,0.0055799091846785
92.87561045676529,0.0052052630566094
92.90433783395576,0.0054820159458733
92.9330652111462,0.0058518607353909
92.96179258833668,0.0057133675394933
