timestamp,emg
0.0,0.0052354650969997
0.0287273771904625,0.005365536633064
0.057454754380925,0.0052259555217669
0.0861821315713875,0.0051451630020113
0.11490950876185,0.0054039324842097
0.1436368859523125,0.0060819497738802
0.172364263142775,0.0067725422367235
0.2010916403332375,0.0059667016815528
0.2298190175237,0.0062522602879388
0.2585463947141626,0.0061749221536682
0.2872737719046251,0.006208231983751
0.3160011490950876,0.0064053500517624
0.3447285262855501,0.0060592722000262
0.3734559034760126,0.0050213596095891
0.4021832806664751,0.0046061759996782
0.4309106578569376,0.0050140745729957
0.4596380350474001,0.0051913251464359
0.4883654122378627,0.0048212317510013
0.5170927894283252,0.0043798658299872
0.5458201666187876,0.005309858469737
0.5745475438092502,0.0049237642610564
0.6032749209997127,0.0046907464337104
0.6320022981901752,0.0048719894232165
0.6607296753806376,0.0046556277486667
0.6894570525711002,0.0040855761062857
0.7181844297615627,0.0047226698887393
0.7469118069520252,0.0052006177410596
0.7756391841424878,0.0042014454324643
0.8043665613329503,0.0046016760317292
0.8330939385234127,0.0047396865013301
0.8618213157138752,0.0049022851618278
0.8905486929043378,0.0049841169241184
0.9192760700948004,0.0046964128998036
0.9480034472852628,0.0046495266669677
0.9767308244757252,0.0053271397066239
1.0054582016661875,0.0046632940080714
1.0341855788566503,0.0047530315644475
1.062912956047113,0.0089449005148662
1.0916403332375753,0.0019289126974513
1.1203677104280378,0.0016540014694331
1.1490950876185004,0.0302604365654998
1.1778224648089628,0.0209951769376341
1.2065498419994254,0.0205801917747814
1.235277219189888,0.021677461489944
1.2640045963803503,0.0219193543894934
1.292731973570813,0.0224612675323941
1.3214593507612753,0.0221994330943085
1.350186727951738,0.0197811671519526
1.3789141051422005,0.0194617883639615
1.4076414823326628,0.0166507797770053
1.4363688595231254,0.0021072878591212
1.465096236713588,0.0079050765775981
1.4938236139040504,0.0080092524834995
1.522550991094513,0.0063692962754919
1.5512783682849756,0.0065466383480982
1.580005745475438,0.0063697800271794
1.6087331226659003,0.0060810693984919
1.637460499856363,0.0067863153488232
1.6661878770468257,0.0072703034983303
1.694915254237288,0.0068679573773247
1.7236426314277504,0.0064625020073298
1.752370008618213,0.007488254606397
1.7810973858086756,0.0072532020348055
1.809824762999138,0.007295638694553
1.8385521401896008,0.0074077923249946
1.8672795173800631,0.0069470744880978
1.8960068945705255,0.0069395231999043
1.924734271760988,0.0068234005046464
1.9534616489514507,0.0070033902731481
1.982189026141913,0.006820985599542
2.010916403332375,0.0062238965093048
2.0396437805228382,0.0062997310378804
2.0683711577133006,0.0056838219527731
2.097098534903763,0.0060244779002528
2.125825912094226,0.0060145335330906
2.154553289284688,0.0058224032548553
2.1832806664751505,0.0055735312283579
2.2120080436656133,0.005130179613959
2.2407354208560757,0.0051543777187719
2.269462798046538,0.0050408575052139
2.298190175237001,0.0049447346677389
2.3269175524274632,0.0044167775006796
2.3556449296179256,0.0048407517463966
2.3843723068083884,0.0049516378701228
2.4130996839988508,0.0047941513222746
2.441827061189313,0.0047048631991586
2.470554438379776,0.0049308343884083
2.4992818155702383,0.0050488754379398
2.5280091927607007,0.0051764676941058
2.5567365699511635,0.0056503588127715
2.585463947141626,0.0047622697992461
2.614191324332088,0.0049593057853644
2.6429187015225506,0.0057777076477627
2.6716460787130134,0.0048596606325218
2.700373455903476,0.0044681235871146
2.729100833093938,0.0049722617369747
2.757828210284401,0.0050120958008363
2.7865555874748633,0.0051188744132393
2.8152829646653257,0.004581105971364
2.8440103418557885,0.0050119391380344
2.872737719046251,0.0064160959979486
2.9014650962367132,0.0057093887317169
2.930192473427176,0.0057062642876912
2.9589198506176384,0.0059681570550832
2.9876472278081008,0.0059040170511294
3.0163746049985636,0.0058786500819248
3.045101982189026,0.006245097203518
3.0738293593794883,0.0057588149436358
3.102556736569951,0.0045516214376754
3.1312841137604135,0.0051733637533466
3.160011490950876,0.0051182162176376
3.1887388681413387,0.0047013207213117
3.217466245331801,0.004976693466529
3.2461936225222634,0.0053871273782415
3.274920999712726,0.0051644470661176
3.303648376903189,0.0049596220478387
3.332375754093651,0.0049755868690577
3.3611031312841133,0.0051072355260254
3.389830508474576,0.0052248863333365
3.4185578856650385,0.005310344478022
3.447285262855501,0.0053332362579924
3.4760126400459637,0.0051689972886012
3.504740017236426,0.0047758872203371
3.5334673944268884,0.004755485613755
3.562194771617351,0.0050019811376109
3.5909221488078136,0.004792670570249
3.619649525998276,0.0048086126375683
3.648376903188739,0.004723257122757
3.677104280379201,0.0047670523214244
3.705831657569663,0.0052060142362835
3.7345590347601263,0.004259423570346
3.7632864119505887,0.0047492291888601
3.792013789141051,0.0051150076120748
3.820741166331514,0.0051184586890142
3.849468543521976,0.005248988128021
3.8781959207124386,0.0052813665370811
3.9069232979029014,0.005243608422009
3.935650675093364,0.0053900670438075
3.964378052283826,0.0053970286153028
3.993105429474289,0.0051554944624265
4.021832806664751,0.0050935379857841
4.050560183855214,0.0050036795834154
4.0792875610456765,0.0047975904424265
4.108014938236138,0.004866702932972
4.136742315426601,0.0053281149471619
4.165469692617064,0.0055121568107839
4.194197069807526,0.0053977189222412
4.222924446997989,0.005442689886445
4.251651824188452,0.0055148406979835
4.2803792013789135,0.0053759053077988
4.309106578569376,0.0053027766636013
4.337833955759839,0.0052071185867931
4.366561332950301,0.0048648432461688
4.395288710140764,0.0047301686136087
4.424016087331227,0.0049273387588054
4.452743464521689,0.0049484967434701
4.481470841712151,0.0050754713766162
4.510198218902614,0.0050077137970435
4.538925596093076,0.0050991023223834
4.567652973283539,0.0050093014284708
4.596380350474002,0.0050437935482979
4.625107727664464,0.0049330780345188
4.6538351048549265,0.0048222875978831
4.682562482045389,0.0049716964430819
4.711289859235851,0.0051316205693636
4.740017236426314,0.0050616334181199
4.768744613616777,0.0050505977507162
4.797471990807239,0.005198978139995
4.8261993679977016,0.0048004170540209
4.854926745188164,0.0048756929883116
4.883654122378626,0.0050908079718801
4.912381499569089,0.0050487465682322
4.941108876759552,0.0053292409684479
4.969836253950014,0.0052947774166407
4.998563631140477,0.0050528345015768
5.0272910083309394,0.0045173569226922
5.056018385521401,0.0052992228148154
5.084745762711864,0.0060705178497201
5.113473139902327,0.0156194697593787
5.142200517092789,0.0176688871425156
5.170927894283252,0.0274984724432332
5.199655271473714,0.0241681755919054
5.2283826486641765,0.0253031415922788
5.257110025854639,0.0237571168935475
5.285837403045101,0.0224471962359745
5.314564780235564,0.0298250507482204
5.343292157426027,0.0123991213879339
5.372019534616489,0.0067537423135286
5.4007469118069515,0.0130147302855278
5.429474288997414,0.0095429138534835
5.458201666187876,0.009905804178157
5.486929043378339,0.0079637644852863
5.515656420568802,0.0097916903128733
5.544383797759264,0.0116605314649802
5.573111174949727,0.011033937038065
5.601838552140189,0.0104950816631458
5.630565929330651,0.0102384289434914
5.659293306521114,0.0099077928928324
5.688020683711577,0.0092488424464172
5.716748060902039,0.0084494595850469
5.745475438092502,0.0074408304309522
5.7742028152829645,0.0060105444020844
5.8029301924734265,0.0057691578857606
5.831657569663889,0.0061258524470092
5.860384946854352,0.0061948817707738
5.889112324044814,0.0068049679912502
5.917839701235277,0.0067619240143486
5.94656707842574,0.0066245019673317
5.9752944556162015,0.0067832524435429
6.004021832806664,0.0067837039027998
6.032749209997127,0.0065038071897412
6.061476587187589,0.0065253559123152
6.090203964378052,0.0064223286786606
6.118931341568515,0.0056342646288964
6.147658718758977,0.005064503539497
6.176386095949439,0.0048335134311139
6.205113473139902,0.0046875819123906
6.233840850330364,0.0048115048753951
6.262568227520827,0.0050604793230834
6.29129560471129,0.0050951952981611
6.320022981901752,0.0054710616990921
6.3487503590922145,0.0052198458272885
6.377477736282677,0.0056360639490077
6.406205113473139,0.005938054765816
6.434932490663602,0.00581957628488
6.463659867854065,0.0060016937860322
6.492387245044527,0.0062918892851399
6.52111462223499,0.0060853308082435
6.549841999425452,0.0054404426903956
6.578569376615914,0.0060381343555388
6.607296753806377,0.0056801291263933
6.636024130996839,0.0065722538912054
6.664751508187302,0.0049767454485291
6.693478885377765,0.0041849478789049
6.722206262568227,0.0055667462663056
6.750933639758689,0.0048875895562671
6.779661016949152,0.0047150091212935
6.808388394139614,0.0045807182019414
6.837115771330077,0.0046724974196167
6.86584314852054,0.0048019565431298
6.894570525711002,0.0045718038492656
6.9232979029014645,0.0043381485191095
6.952025280091927,0.0051716653985686
6.980752657282389,0.0050711756752146
7.009480034472852,0.0050601519977314
7.038207411663315,0.0051372423816863
7.066934788853777,0.0050998497641749
7.09566216604424,0.0052343024981345
7.124389543234702,0.004903983980556
7.153116920425164,0.00460020578153
7.181844297615627,0.0052572210824341
7.21057167480609,0.0051516365239952
7.239299051996552,0.0059764013016809
7.268026429187015,0.0059228464767067
7.296753806377477,0.0060713035676496
7.325481183567939,0.0063840823650986
7.354208560758402,0.0065076963418761
7.382935937948865,0.0062174125507817
7.411663315139327,0.0061089550935159
7.44039069232979,0.0061677306680758
7.469118069520253,0.0059408102476626
7.497845446710715,0.0056705918291284
7.526572823901177,0.0053856575835274
7.55530020109164,0.0051009552076071
7.584027578282102,0.0049405639305719
7.612754955472565,0.0049581595025053
7.641482332663028,0.004641963403572
7.67020970985349,0.0045862493798809
7.698937087043952,0.0045698236433471
7.727664464234415,0.0045094355862833
7.756391841424877,0.0044372905726766
7.78511921861534,0.0042704709852623
7.813846595805803,0.0048709399333493
7.842573972996265,0.0050044859326544
7.871301350186728,0.0047093115300039
7.90002872737719,0.0049031938796426
7.928756104567652,0.0051736670534228
7.957483481758115,0.0054945715683278
7.986210858948578,0.0058026354649128
8.01493823613904,0.00604587393326
8.043665613329502,0.0059597484509893
8.072392990519965,0.005675820821878
8.101120367710427,0.0060835714104404
8.12984774490089,0.0060607336724013
8.158575122091353,0.0058256752555625
8.187302499281815,0.0057109343471104
8.216029876472277,0.0057398275648198
8.24475725366274,0.0058045669818199
8.273484630853202,0.0055866019239942
8.302212008043664,0.0054181432290349
8.330939385234128,0.0048607089428214
8.35966676242459,0.0045541515902385
8.388394139615052,0.0045458315286858
8.417121516805516,0.0044572026937026
8.445848893995977,0.0044432817980743
8.47457627118644,0.0047086268447704
8.503303648376903,0.0047661609233427
8.532031025567365,0.0048839592577805
8.560758402757827,0.0048980005917558
8.58948577994829,0.0048472098159342
8.618213157138753,0.005121313276894
8.646940534329215,0.0045261508405206
8.675667911519678,0.0045495621370769
8.70439528871014,0.004834922848585
8.733122665900602,0.0045519092348166
8.761850043091066,0.0043338800246405
8.790577420281528,0.0046479578226612
8.81930479747199,0.0047621386710021
8.848032174662453,0.0046276892228821
8.876759551852915,0.0049384013416506
8.905486929043377,0.0047465103788752
8.93421430623384,0.0052141580446859
8.962941683424303,0.0055537180075918
8.991669060614765,0.0056281413191306
9.020396437805228,0.0054979321009597
9.04912381499569,0.0054949741337525
9.077851192186152,0.0056348427559604
9.106578569376616,0.0056645368521204
9.135305946567078,0.0058937306506815
9.16403332375754,0.0068560207429868
9.192760700948003,0.0090575217536467
9.221488078138464,0.0159074477687279
9.250215455328927,0.0280096949034417
9.278942832519393,0.0346975300205357
9.307670209709851,0.0344371674725716
9.336397586900317,0.0345141503665279
9.36512496409078,0.0345100168485565
9.39385234128124,0.0370306027883128
9.422579718471702,0.03264616267105
9.451307095662166,0.0361361933163303
9.480034472852628,0.02241289362239397
9.50876185004309,0.0129721895101807
9.537489227233554,0.0090195056783818
9.566216604424016,0.0066727077701082
9.594943981614476,0.0064657806291323
9.62367135880494,0.006266213826862
9.652398735995405,0.006241232102069
9.681126113185863,0.0059958534602548
9.709853490376329,0.005386250226596
9.73858086756679,0.0056984684013203
9.767308244757253,0.0054113224729186
9.796035621947716,0.0053256119418261
9.824762999138178,0.0056082876942528
9.85349037632864,0.0059884069286436
9.882217753519104,0.0059386419915368
9.910945130709566,0.0058826327631983
9.939672507900028,0.0066436073853897
9.968399885090491,0.006267555934979
9.997127262280951,0.0064551528595497
10.025854639471415,0.0058362605046545
10.05458201666188,0.0052221735521621
10.08330939385234,0.0056881123115434
10.112036771042805,0.0059401838856577
10.140764148233266,0.0060285047693013
10.169491525423728,0.0060250050924144
10.19821890261419,0.0059479586692496
10.226946279804654,0.0059205320135704
10.255673656995116,0.0061018121804662
10.284401034185578,0.0059536973118872
10.31312841137604,0.0055359601417547
10.341855788566503,0.005880280462664
10.370583165756964,0.0061458984237076
10.399310542947427,0.0051676991824917
10.428037920137893,0.0054013150677896
10.456765297328351,0.0052951386411184
10.485492674518817,0.0047538073284323
10.51422005170928,0.004828455979635
10.54294742889974,0.0048577622053132
10.571674806090202,0.0044445362361062
10.600402183280666,0.0045896301508412
10.629129560471128,0.0052790376237103
10.65785693766159,0.0048902523513305
10.686584314852054,0.0049874637809596
10.715311692042516,0.0053263700379183
10.744039069232976,0.0045934822707426
10.77276644642344,0.0061331415840539
10.801493823613905,0.0050089242993801
10.830221200804363,0.0051580528162735
10.858948577994829,0.0053935159356601
10.88767595518529,0.0051648728661603
10.916403332375753,0.0049174789913012
10.945130709566216,0.004590271409417
10.973858086756678,0.0045509800648969
11.00258546394714,0.0048685647374017
11.031312841137604,0.0047626888500889
11.060040218328066,0.005309425393042
11.088767595518528,0.0045925434859505
11.117494972708991,0.00467971784779
11.146222349899451,0.0041257655712671
11.174949727089915,0.0044248319823378
11.20367710428038,0.0044365004492956
11.23240448147084,0.0048946340009047
11.261131858661305,0.0047292493061363
11.289859235851766,0.0046861203944471
11.318586613042228,0.0047584194070746
11.34731399023269,0.0047127011838519
11.376041367423154,0.0046184216273131
11.404768744613616,0.0050158057162855
11.433496121804078,0.0047574044299609
11.462223498994542,0.0048088633743467
11.490950876185003,0.0051096786557859
11.519678253375464,0.0052614320649458
11.548405630565927,0.0054565493580974
11.577133007756393,0.0059865018773528
11.605860384946851,0.0061729955117304
11.634587762137317,0.0058820924399925
11.66331513932778,0.0058372930454223
11.69204251651824,0.0056194488163416
11.720769893708704,0.005445359376773
11.749497270899166,0.005837470025877
11.778224648089628,0.0053642280893495
11.806952025280092,0.0052853984369448
11.835679402470554,0.0048417115491625
11.864406779661016,0.00547214867644
11.89313415685148,0.0052018254153158
11.92186153404194,0.0053624197159426
11.950588911232405,0.0052770520800975
11.979316288422869,0.0042113999552783
12.008043665613329,0.0051250556930922
12.03677104280379,0.0063415974623393
12.065498419994254,0.0056368981615499
12.094225797184716,0.0055963026492724
12.122953174375178,0.0054434270281283
12.151680551565642,0.0056058801289768
12.180407928756104,0.00585268544291
12.209135305946566,0.0059935349956009
12.23786268313703,0.0059786571774285
12.266590060327491,0.0049823947435621
12.295317437517951,0.0052025990196591
12.324044814708415,0.0053915416713237
12.35277219189888,0.005126755410138
12.38149956908934,0.0053489962964219
12.410226946279804,0.0051451556484911
12.438954323470266,0.0050287487927116
12.467681700660728,0.0051982442054023
12.496409077851192,0.0050200076496367
12.525136455041654,0.0048748811595545
12.553863832232116,0.0048879271961829
12.58259120942258,0.0049963412152137
12.611318586613042,0.0052523071377315
12.640045963803503,0.0055764785341375
12.668773340993967,0.0057850592020081
12.697500718184427,0.0057314912499596
12.726228095374893,0.0060184033907776
12.754955472565356,0.0061348534895538
12.783682849755817,0.0059544644263446
12.81241022694628,0.0065483462764105
12.841137604136742,0.0063409913616931
12.869864981327204,0.005143009225662
12.898592358517666,0.0053536270030433
12.92731973570813,0.0054513353030205
12.956047112898592,0.0053416263004413
12.984774490089054,0.0050214608611487
13.013501867279516,0.0054041815233496
13.04222924446998,0.0049289060392459
13.07095662166044,0.0047931948473013
13.099683998850905,0.0085247000533795
13.128411376041369,0.0083997216179466
13.157138753231829,0.0022634784085315
13.185866130422292,0.0232042884409155
13.214593507612754,0.0190333413892775
13.243320884803216,0.0180914360479896
13.272048261993678,0.0200455034689248
13.300775639184142,0.0199645002985134
13.329503016374604,0.0178188467969437
13.358230393565066,0.0219841202594955
13.38695777075553,0.0252607382523074
13.415685147945991,0.0064907463042815
13.444412525136451,0.008039131519199
13.473139902326915,0.0076164540103761
13.50186727951738,0.0087176490028953
13.53059465670784,0.0073657040197507
13.559322033898304,0.0073079019285956
13.588049411088766,0.0059128844404047
13.616776788279228,0.0059926011268051
13.645504165469692,0.0061650023337921
13.674231542660154,0.0059140948438166
13.702958919850616,0.006403946510977
13.73168629704108,0.00602838048589
13.76041367423154,0.0059655966130075
13.789141051422003,0.0065251714155549
13.817868428612467,0.006177333776274
13.846595805802927,0.0069095489974505
13.875323182993393,0.0060038260259593
13.904050560183856,0.006192471357328
13.932777937374317,0.0061219232079393
13.96150531456478,0.0060804242045563
13.990232691755242,0.0058597801061338
14.018960068945704,0.0056660909312977
14.047687446136166,0.005586534375177
14.07641482332663,0.0052666547495299
14.105142200517092,0.0053162468181307
14.133869577707554,0.0050805384780588
14.162596954898016,0.0046141501079206
14.19132433208848,0.0046396677202685
14.22005170927894,0.0047688570269413
14.248779086469405,0.0046934239916932
14.277506463659869,0.0044755389918387
14.306233840850329,0.0044202816160145
14.334961218040792,0.0044305616905298
14.363688595231254,0.0043717984106909
14.392415972421716,0.0043251355996121
14.42114334961218,0.0043587031777719
14.449870726802642,0.0045171753636181
14.478598103993104,0.0048393851703451
14.507325481183567,0.0049787127480097
14.53605285837403,0.0048384827696225
14.564780235564491,0.0047454569919636
14.593507612754957,0.0049028271352247
14.622234989945415,0.0052400379623872
14.65096236713588,0.00530419881066
14.679689744326344,0.00494704467572
14.708417121516804,0.0048630773383149
14.737144498707266,0.00552668120913
14.76587187589773,0.0055122617824842
14.794599253088192,0.0059649968908518
14.823326630278654,0.005202053449495
14.852054007469118,0.0058416377591869
14.88078138465958,0.0058968165784139
14.90950876185004,0.0057632917734794
14.938236139040503,0.0054827479556503
14.966963516230969,0.0054145425061203
14.995690893421427,0.0057717655067081
15.024418270611893,0.0057065131483474
15.053145647802356,0.0051693554297685
15.081873024992817,0.0053524914939994
15.11060040218328,0.0050414180139537
15.139327779373742,0.005407922179232
15.168055156564204,0.0054335830404622
15.196782533754668,0.0049695598432885
15.22550991094513,0.0048379906101307
15.254237288135592,0.0046068814525504
15.282964665326055,0.0057663095886158
15.311692042516515,0.0049216320917519
15.34041941970698,0.004442287290273
15.369146796897445,0.0048197351461005
15.397874174087905,0.0047888298578097
15.426601551278369,0.0047777041412554
15.45532892846883,0.005126540244816
15.484056305659292,0.0054836261504847
15.512783682849754,0.0046650566283722
15.541511060040218,0.0051574451681625
15.57023843723068,0.0050721384842294
15.598965814421142,0.0053197869461367
15.627693191611606,0.0052275614917217
15.656420568802067,0.0054685131273926
15.68514794599253,0.0054482332960757
15.713875323182991,0.0054254943776348
15.742602700373457,0.0056469352714053
15.771330077563915,0.0056465300921703
15.80005745475438,0.006419142492525
15.828784831944844,0.0047963793537973
15.857512209135304,0.0051181423736255
15.886239586325768,0.0056241399734911
15.91496696351623,0.0052314129645726
15.943694340706692,0.0051811501990673
15.972421717897156,0.0053092508088926
16.001149095087616,0.0048267929508854
16.02987647227808,0.0050190129168328
16.058603849468543,0.0051452030040019
16.087331226659003,0.0046899318812752
16.116058603849467,0.0050546797152465
16.14478598103993,0.0061179540802937
16.17351335823039,0.0059769002392174
16.202240735420855,0.0063512143994963
16.23096811261132,0.0061367026687586
16.25969548980178,0.0066988270205294
16.288422866992242,0.0068231816267982
16.317150244182706,0.0065905435161724
16.345877621373166,0.00633328508325
16.37460499856363,0.0062135981776355
16.403332375754093,0.0061484650794584
16.432059752944554,0.0059339691751038
16.460787130135017,0.0054407670496657
16.48951450732548,0.0051209924323933
16.51824188451594,0.0054484725761146
16.546969261706405,0.0052536209741429
16.57569663889687,0.0051912967303043
16.60442401608733,0.0050479097002401
16.633151393277792,0.005087378470001
16.661878770468256,0.0051704507380707
16.690606147658716,0.0049190649105432
16.71933352484918,0.0048318888059283
16.748060902039644,0.0055594889268521
16.776788279230104,0.0051415313581086
16.805515656420567,0.0054285078383492
16.83424303361103,0.0050596390066664
16.86297041080149,0.0053953500750026
16.891697787991955,0.0052089265766316
16.92042516518242,0.0054699653816427
16.94915254237288,0.00519948961444
16.977879919563343,0.0049598099264559
17.006607296753806,0.0047677215461704
17.035334673944266,0.0045945834926995
17.06406205113473,0.0047843583531318
17.092789428325194,0.0045992189604011
17.121516805515654,0.0051186337280071
17.150244182706118,0.0074361203657532
17.17897155989658,0.0118969941302878
17.20769893708704,0.0157724259254026
17.236426314277505,0.0166218582182086
17.26515369146797,0.0191725506064459
17.29388106865843,0.0194680517528281
17.322608445848893,0.0191263193077371
17.351335823039356,0.0194085548295923
17.380063200229817,0.0195852040675214
17.40879057742028,0.015155937292676
17.437517954610744,0.0146625432341673
17.466245331801204,0.0142609705918468
17.494972708991668,0.0090379407690917
17.52370008618213,0.0087995099881824
17.55242746337259,0.007652156027333
17.581154840563055,0.0079990237840073
17.60988221775352,0.0077087044706183
17.63860959494398,0.0075968137286324
17.667336972134443,0.0073667724698279
17.696064349324907,0.0072170600633846
17.724791726515367,0.0071690794783199
17.75351910370583,0.0066548894970713
17.782246480896294,0.0067866305522517
17.810973858086754,0.0070039677061168
17.839701235277218,0.0062400255003563
17.86842861246768,0.006166058536407
17.897155989658142,0.0061933411038209
17.925883366848606,0.0064583584574234
17.95461074403907,0.0067227602145167
17.98333812122953,0.0050364020602901
18.012065498419993,0.005595235283298
18.040792875610457,0.0060008037877483
18.069520252800917,0.0048232808219702
18.09824762999138,0.0051922577127743
18.126975007181844,0.0050532181940408
18.155702384372304,0.0051635161788666
18.184429761562768,0.0049707190191948
18.213157138753232,0.0049842382503716
18.241884515943692,0.0051774963918052
18.270611893134156,0.0051367423015533
18.29933927032462,0.0050835536117514
18.32806664751508,0.0051858331157784
18.356794024705543,0.0051768310735505
18.385521401896007,0.0048407851907513
18.414248779086467,0.0048601098224071
18.44297615627693,0.0046688825404045
18.47170353346739,0.004532057967589
18.500430910657855,0.0046416977720939
18.52915828784832,0.0046972387077779
18.557885665038786,0.0047857799179253
18.58661304222924,0.0050201686435438
18.615340419419702,0.0045219269406169
18.64406779661017,0.0049018248409552
18.67279517380063,0.0053475917315278
18.701522550991093,0.0052503370365867
18.730249928181557,0.0052118198876507
18.758977305372017,0.0053460489448478
18.78770468256248,0.0056643130151105
18.816432059752945,0.0054983463803485
18.845159436943405,0.0056659677103599
18.87388681413387,0.0056927389724543
18.902614191324332,0.0053628591243641
18.931341568514792,0.0054858985545634
18.960068945705256,0.0054086806213639
18.98879632289572,0.005242113799267
19.01752370008618,0.0054311571250157
19.046251077276644,0.0060772429908179
19.074978454467107,0.0050132752797431
19.103705831657567,0.0057946858383753
19.13243320884803,0.006158903248604
19.161160586038495,0.0060897445676741
19.189887963228955,0.0061685050299452
19.21861534041942,0.0062809682168659
19.24734271760988,0.006049659897829
19.276070094800343,0.005519154273303
19.30479747199081,0.0066492210136117
19.33352484918127,0.0055188137921266
19.36225222637173,0.0043893542619286
19.390979603562194,0.0051778851357512
19.419706980752657,0.005007061393177
19.44843435794312,0.0049965151237213
19.47716173513358,0.0050389426655514
19.505889112324045,0.0049756532757025
19.534616489514505,0.0049406172495009
19.56334386670497,0.0050496892130488
19.592071243895433,0.0051618725954413
19.620798621085893,0.0056807797344903
19.649525998276356,0.0059513435451768
19.67825337546682,0.005762297519981
19.70698075265728,0.0059741732168863
19.735708129847744,0.0059339219067739
19.764435507038208,0.0058866874223891
19.793162884228668,0.0055822701090924
19.82189026141913,0.0050458475683369
19.850617638609595,0.0060918178634658
19.879345015800055,0.0058986985080762
19.90807239299052,0.0053245025268759
19.936799770180983,0.0053448284924289
19.965527147371443,0.0058227951906039
19.994254524561907,0.0058824129096568
20.02298190175237,0.0056813882244026
20.05170927894283,0.0057654807262286
20.080436656133298,0.0055376777372657
20.10916403332376,0.0052222781053486
20.137891410514214,0.005126258494846
20.16661878770468,0.0050080983618301
20.195346164895145,0.0045491826127855
20.224073542085605,0.0050728038346252
20.25280091927607,0.0054680271411316
20.281528296466533,0.005270607618838
20.310255673656993,0.005256812412774
20.338983050847457,0.005051047650778
20.36771042803792,0.0051656735945903
20.39643780522838,0.0062217946226195
20.425165182418844,0.0055476465873909
20.453892559609308,0.0056111899235105
20.482619936799768,0.0048675186442821
20.511347313990232,0.0056224991788181
20.540074691180696,0.0051695392410174
20.568802068371156,0.0066926094294308
20.59752944556162,0.0058664802839244
20.62625682275208,0.0052215105783375
20.654984199942543,0.0052899477244101
20.683711577133007,0.0055576679151538
20.712438954323467,0.0054869549591165
20.74116633151393,0.0051616286060606
20.76989370870439,0.0049648178678822
20.798621085894855,0.004850874218735
20.82734846308532,0.0048326677637633
20.856075840275786,0.0049229559061322
20.88480321746624,0.0050660868991272
20.913530594656702,0.0050086248227198
20.94225797184717,0.0046869548182974
20.97098534903763,0.0048342071076134
20.999712726228093,0.0054079040899015
21.028440103418557,0.005180099739074
21.057167480609017,0.005481273356084
21.08589485779948,0.0057680064103811
21.114622234989945,0.0057953809140012
21.143349612180405,0.0059325458838519
21.17207698937087,0.0066531987498374
21.200804366561332,0.0060498059241314
21.229531743751792,0.0086417085796519
21.258259120942256,0.0169076029969472
21.28698649813272,0.0198491283930609
21.31571387532318,0.0199464542153525
21.344441252513644,0.0272727385762372
21.373168629704107,0.029348735654278
21.401896006894567,0.0296360804088595
21.43062338408503,0.0285270434287824
21.459350761275495,0.0272098919895579
21.488078138465955,0.0295730283210371
21.51680551565642,0.0236565174143595
21.54553289284688,0.020713168807652716
21.574260270037342,0.00856790207039417
21.60298764722781,0.0046780496809959654
21.63171502441827,0.009734945469427976
21.66044240160873,0.0083066167918204
21.689169778799194,0.0061553580187675
21.717897155989657,0.0099885774469371
21.74662453318012,0.0087201768616085
21.77535191037058,0.0077193245171329
21.804079287561045,0.0095116669861721
21.832806664751505,0.0089387188085578
21.86153404194197,0.0080631644928278
21.890261419132433,0.0081518503300718
21.918988796322893,0.0081739814776699
21.947716173513356,0.0078751843336233
21.97644355070382,0.0074125460520739
22.00517092789428,0.0075277101880736
22.033898305084744,0.0077568543512913
22.062625682275208,0.0071910946357834
22.091353059465668,0.0073288213549043
22.12008043665613,0.007152662106991
22.148807813846595,0.0071445964595639
22.177535191037055,0.0069274203644964
22.20626256822752,0.0064220576921956
22.234989945417983,0.0064172079544802
22.263717322608443,0.0059253032446207
22.292444699798907,0.0061096047008799
22.32117207698937,0.0063311693223916
22.34989945417983,0.0062822611896659
22.378626831370298,0.0057480718628885
22.40735420856076,0.0058689359922647
22.436081585751214,0.0058975725868173
22.46480896294168,0.0058437836423682
22.493536340132145,0.0062515734389708
22.522263717322605,0.0059382523756416
22.55099109451307,0.0057757470291851
22.579718471703533,0.0056904335621132
22.608445848893993,0.0057654715123995
22.637173226084457,0.005882896098134
22.66590060327492,0.0058598200792565
22.69462798046538,0.0056697094588075
22.723355357655844,0.0054455821124491
22.752082734846308,0.0052146655792272
22.780810112036768,0.0053245885908042
22.809537489227232,0.0059986296242658
22.838264866417695,0.0044509977821143
22.866992243608156,0.0050892908004832
22.89571962079862,0.0051036077444193
22.924446997989083,0.0050054885232071
22.953174375179543,0.0049197749483453
22.981901752370007,0.0044120745072771
23.01062912956047,0.0047550363289459
23.03935650675093,0.0062626265938547
23.06808388394139,0.0031782114458793
23.096811261131855,0.0041264552856677
23.12553863832232,0.0050319742982424
23.154266015512786,0.0046979499760656
23.18299339270325,0.0046272331260126
23.211720769893702,0.0045380190145292
23.24044814708417,0.0043931361486732
23.269175524274633,0.0044344145370144
23.297902901465093,0.0045497791992334
23.326630278655557,0.0045057634623047
23.35535765584602,0.0042034025059742
23.38408503303648,0.0044366073066138
23.412812410226945,0.0045831637718222
23.44153978741741,0.0047847872224826
23.47026716460787,0.004671591632373
23.498994541798332,0.0045498038972519
23.527721918988796,0.0045330680783482
23.556449296179256,0.0044870023843375
23.58517667336972,0.0047254847506651
23.613904050560183,0.0049921574673137
23.642631427750644,0.0050135988710783
23.671358804941107,0.0052721422665003
23.70008618213157,0.0057933251530885
23.72881355932203,0.0059801469003994
23.757540936512495,0.0060649563271726
23.78626831370296,0.0058638251837252
23.81499569089342,0.0060002498222149
23.84372306808388,0.0055181267437824
23.872450445274342,0.0055438655055522
23.90117782246481,0.0049961682551507
23.92990519965527,0.0048666681242992
23.958632576845737,0.0056206998654722
23.987359954036194,0.0053700659757221
24.016087331226657,0.0052329668022241
24.04481470841712,0.0057390864915461
24.07354208560758,0.0058252597992279
24.102269462798045,0.0056168565867437
24.13099683998851,0.0056171480220794
24.15972421717897,0.0053052066401047
24.188451594369432,0.0049853914670578
24.217178971559896,0.0049597211626363
24.245906348750356,0.0050657332016021
24.27463372594082,0.0053457594633812
24.303361103131284,0.0053429345604676
24.332088480321744,0.0058875015244251
24.360815857512208,0.0060023599279747
24.38954323470267,0.0055032100775066
24.41827061189313,0.0061174832410822
24.446997989083595,0.0059219531342183
24.47572536627406,0.0062173490049512
24.50445274346452,0.0056731510216921
24.533180120654983,0.0058573187101852
24.561907497845446,0.0052081757574363
24.590634875035907,0.0053282591951924
24.61936225222637,0.0056436168555267
24.64808962941683,0.005188283678587
24.676817006607298,0.0055356049176772
24.70554438379776,0.0061393836150459
24.73427176098822,0.0060287932041475
24.76299913817868,0.0061256197628515
24.791726515369145,0.0063079202191829
24.82045389255961,0.0061235350850709
24.84918126975007,0.0064541762126858
24.877908646940533,0.0062617113236716
24.906636024130997,0.0051239270761184
24.935363401321457,0.0050134863835901
24.96409077851192,0.0047133919332922
24.992818155702384,0.0056876153352162
25.021545532892844,0.0050114434931329
25.050272910083308,0.0049094298889026
25.07900028727377,0.0053898731354656
25.10772766446423,0.0056082143883654
25.136455041654695,0.0054653181937892
25.16518241884516,0.0057001832755056
25.19390979603562,0.0055276094955101
25.222637173226083,0.0051552120637393
25.251364550416547,0.0053882421022239
25.280091927607007,0.0056209332526927
25.30881930479747,0.0043220317119344
25.337546681987934,0.0048032300595143
25.36627405917839,0.0074003695354964
25.395001436368855,0.0269988743462852
25.42372881355932,0.0322031556427661
25.452456190749785,0.0316410253151973
25.48118356794025,0.0307141240851599
25.50991094513071,0.0300311601517462
25.53863832232117,0.0330671799462609
25.567365699511633,0.031658398194286
25.596093076702097,0.023816925322458
25.624820453892557,0.0173801820392182
25.65354783108302,0.0113806004680414
25.682275208273484,0.0090494847838869
25.711002585463945,0.0092609997970755
25.73972996265441,0.0081098528126714
25.768457339844872,0.0069922601733682
25.797184717035332,0.0065996350761311
25.825912094225796,0.0068328366898858
25.85463947141626,0.0065415113340486
25.88336684860672,0.0066047366178107
25.912094225797183,0.0061756704366189
25.940821602987647,0.0055958601883823
25.969548980178107,0.0053800880754208
25.99827635736857,0.0059649488702173
26.027003734559035,0.0056995769704608
26.055731111749495,0.0048472565615055
26.08445848893996,0.0051799879756775
26.113185866130426,0.005341662194111
26.14191324332088,0.0054263057542651
26.170640620511342,0.0053784992412275
26.19936799770181,0.0058104322687881
26.22809537489227,0.0058445975665056
26.256822752082737,0.00615627611649
26.285550129273197,0.0045364139109994
26.314277506463657,0.0062316460752777
26.34300488365412,0.0077117887952499
26.371732260844585,0.0055856993700377
26.400459638035045,0.0065926107213992
26.42918701522551,0.0061386857272419
26.457914392415972,0.0061754940559959
26.486641769606432,0.006228883280844
26.515369146796896,0.0062239309523614
26.544096523987356,0.0060345054459057
26.57282390117782,0.0056154112769458
26.601551278368284,0.0056728413946859
26.630278655558744,0.0051567325985782
26.659006032749208,0.0050315882579033
26.68773340993967,0.0051007783900725
26.71646078713013,0.0052627622013642
26.745188164320595,0.0053934396346386
26.77391554151106,0.0054849832165407
26.80264291870152,0.0056291121724869
26.831370295891983,0.0055828864707945
26.860097673082446,0.0053498353192834
26.888825050272903,0.0053254844392958
26.91755242746337,0.005812159553034
26.94627980465383,0.0060043016022818
26.975007181844298,0.0058055032301877
27.00373455903476,0.0058556498962077
27.03246193622522,0.0055571575804661
27.06118931341568,0.0055091227207617
27.089916690606145,0.0054476143401529
27.11864406779661,0.0055177101489575
27.14737144498707,0.005172170439067
27.176098822177533,0.0044804428837328
27.204826199367997,0.0049910246186144
27.233553576558457,0.0050921338914675
27.26228095374892,0.0044828055557662
27.291008330939384,0.0048754757324054
27.319735708129844,0.0049432695032278
27.348463085320308,0.0054416341017407
27.37719046251077,0.0057939542756667
27.40591783970123,0.0058164888111237
27.434645216891695,0.0061857002605916
27.46337259408216,0.006103877349023
27.49209997127262,0.0058938677961692
27.520827348463083,0.0058306550328038
27.549554725653547,0.0060439909754378
27.578282102844007,0.0045454704183518
27.60700948003447,0.0053774860399461
27.635736857224934,0.0054358102546985
27.66446423441539,0.0052450846556061
27.693191611605855,0.0053403305042401
27.72191898879632,0.0053979352634689
27.750646365986785,0.0057055273550037
27.77937374317725,0.0056512340110187
27.80810112036771,0.0060493181039022
27.83682849755817,0.0059667796085861
27.865555874748633,0.0060897037259504
27.894283251939097,0.0059230186703566
27.923010629129557,0.0059734108742416
27.95173800632002,0.0059693077986412
27.980465383510484,0.0058362977583186
28.009192760700945,0.0058590647557426
28.03792013789141,0.0058233410610626
28.066647515081872,0.0057656714623157
28.095374892272332,0.0059518611884975
28.124102269462796,0.0054036431501947
28.15282964665326,0.005442422993322
28.18155702384372,0.0057745512871757
28.210284401034183,0.0058798339872196
28.239011778224647,0.0059442181607945
28.267739155415107,0.0056245607657066
28.29646653260557,0.005506948365589
28.325193909796035,0.0051867622412655
28.353921286986495,0.0055353255855136
28.38264866417696,0.0052133499318226
28.411376041367426,0.0049498750916667
28.44010341855788,0.0046147572105497
28.468830795748342,0.0044995501433951
28.49755817293881,0.0048812996657847
28.52628555012927,0.0049256494370683
28.555012927319737,0.0047127105057256
28.583740304510197,0.0048491762560925
28.612467681700657,0.0049949442806174
28.64119505889112,0.0050110100951884
28.669922436081585,0.0048993258622054
28.698649813272045,0.0048818800664047
28.72737719046251,0.004871791089636
28.756104567652972,0.0048630047957598
28.784831944843432,0.0048200366504971
28.813559322033896,0.0046648556802734
28.84228669922436,0.0054996669863737
28.87101407641482,0.0052677213596835
28.899741453605284,0.0045289367878997
28.928468830795747,0.0051905995766449
28.957196207986208,0.0051593960787561
28.98592358517667,0.0051471709289339
29.014650962367135,0.0048080227972415
29.043378339557595,0.0044797568898654
29.07210571674806,0.0047016366268522
29.10083309393852,0.0048426607719083
29.129560471128983,0.0050775211781628
29.158287848319446,0.0046897108946507
29.18701522550991,0.0047900207996663
29.21574260270037,0.0053771089088941
29.24446997989083,0.0050763409742879
29.273197357081298,0.0047713902770769
29.30192473427176,0.0049950692120143
29.33065211146222,0.0073389680576476
29.359379488652685,0.0148552035710774
29.388106865843145,0.0211141266269663
29.41683424303361,0.0209831332452312
29.445561620224073,0.0240311750953869
29.474288997414533,0.0270300101407299
29.503016374604996,0.0268869962642652
29.53174375179546,0.0271716111767522
29.56047112898592,0.0266371921431737
29.589198506176384,0.0239286364130037
29.617925883366848,0.0168936194846022
29.646653260557308,0.0084787603628174
29.67538063774777,0.007092404056451
29.704108014938235,0.007561104448855
29.732835392128695,0.0074109572436148
29.76156276931916,0.0066054387451562
29.790290146509623,0.0063195944739885
29.819017523700083,0.006992695674443
29.847744900890547,0.0056402817316412
29.87647227808101,0.0061982063531386
29.90519965527147,0.0060643290631227
29.933927032461938,0.0058327513766372
29.9626544096524,0.0054708607978638
29.991381786842854,0.0054729640755987
30.02010916403332,0.005637762636498
30.048836541223785,0.0058489068928298
30.07756391841425,0.0047435251428811
30.10629129560471,0.0048893084515821
30.135018672795173,0.0048588454437939
30.163746049985633,0.005272391433197
30.192473427176097,0.0051667594035855
30.22120080436656,0.0050419142250355
30.24992818155702,0.0051088472795313
30.278655558747484,0.0052165912697768
30.307382935937948,0.0054694428037439
30.336110313128408,0.0055955949179589
30.364837690318872,0.0049625268811343
30.393565067509336,0.0056642347467676
30.422292444699796,0.0059181876202955
30.45101982189026,0.0056919498183069
30.479747199080723,0.0055949764701418
30.508474576271183,0.0056038994193632
30.537201953461647,0.0055948202899599
30.56592933065211,0.0054561059541652
30.59465670784257,0.0050846407121055
30.623384085033035,0.0043479091945549
30.6521114622235,0.0043719086777468
30.68083883941396,0.004630436054791
30.709566216604426,0.0046415609857927
30.73829359379489,0.0044436218355219
30.767020970985342,0.0046574457251085
30.79574834817581,0.0045442654247843
30.824475725366273,0.0059856964061728
30.853203102556733,0.0053376953155521
30.881930479747197,0.0053280145296925
30.91065785693766,0.0054870162065631
30.93938523412812,0.0054573711129523
30.968112611318585,0.0055704239926348
30.99683998850905,0.0055100033899509
31.02556736569951,0.0049446179606102
31.054294742889972,0.0047386175532227
31.083022120080436,0.0049268108359525
31.111749497270896,0.004922556857403
31.14047687446136,0.0046359093347582
31.169204251651824,0.0046978110708022
31.197931628842284,0.0046831415517693
31.226659006032747,0.0046338466257621
31.25538638322321,0.0048229847000755
31.28411376041367,0.0051542368026725
31.312841137604135,0.0054317417240672
31.3415685147946,0.0055366818199123
31.37029589198506,0.0054828512558987
31.39902326917552,0.0054107153006283
31.427750646365983,0.0055164429925998
31.456478023556446,0.0053939123123205
31.48520540074691,0.0049373678710923
31.513932777937377,0.0051587445354522
31.54266015512783,0.0035654773667856
31.571387532318298,0.0038111992335773
31.60011490950876,0.0042133516328739
31.62884228669922,0.0046329411511074
31.657569663889685,0.0037445113671399
31.68629704108015,0.0039598986966291
31.71502441827061,0.0046808363203666
31.743751795461073,0.0047492454773892
31.772479172651536,0.0042125198770367
31.801206549841996,0.0044018004416999
31.82993392703246,0.0045940432086977
31.858661304222924,0.0044434085293312
31.887388681413384,0.0035153853118716
31.916116058603848,0.00522567535067
31.94484343579431,0.0044227600159789
31.97357081298477,0.0038436297360719
32.00229819017523,0.005841690532467
32.031025567365695,0.0053433970133165
32.05975294455616,0.0045632406684222
32.08848032174662,0.004932098015125
32.11720769893709,0.0049420462397997
32.14593507612755,0.0048800516452587
32.17466245331801,0.0050405360870655
32.20338983050847,0.0043181540032693
32.232117207698934,0.0043933120108913
32.2608445848894,0.0050846094556073
32.28957196207986,0.005543611257752
32.318299339270325,0.0054236972945104
32.34702671646078,0.0052141842598652
32.375754093651246,0.0056450647520947
32.40448147084171,0.0053815332928057
32.43320884803217,0.0070282161994813
32.46193622522264,0.0071333324030697
32.4906636024131,0.0011224871079621504
32.51939097960356,0.004321213344932425
32.54811835679402,0.0019239075080353
32.576845733984484,0.0039848749827936
32.60557311117495,0.0047344618682525
32.63430048836541,0.0048203824127463
32.663027865555875,0.0048450889796184
32.69175524274633,0.0047245499620034
32.720482619936796,0.0046613164380728
32.74920999712726,0.00463483545348
32.77793737431772,0.0047703481623035
32.80666475150819,0.0043558263995063
32.83539212869865,0.0043979248327305
32.86411950588911,0.004651943398425
32.89284688307957,0.004476022944606
32.921574260270035,0.0044277725294884
32.9503016374605,0.0047693696379674
32.97902901465096,0.0048130977067272
33.007756391841426,0.0049310368929506
33.03648376903188,0.0052370097865035
33.065211146222346,0.0052541033785836
33.09393852341281,0.0050275509369917
33.12266590060327,0.0059317963412756
33.15139327779374,0.0058636895193515
33.1801206549842,0.0056952485317954
33.20884803217466,0.0056013586469121
33.23757540936512,0.0054428536449756
33.266302786555585,0.0046883807643666
33.29503016374605,0.0069284503074549
33.32375754093651,0.0158838296499398
33.352484918126976,0.023348412903223
33.38121229531743,0.0260063237718234
33.409939672507896,0.0260986525691226
33.43866704969836,0.0263577249780004
33.46739442688882,0.0263216916453124
33.49612180407929,0.0266652403629621
33.52484918126975,0.026509187201743
33.55357655846021,0.0194912072689111
33.58230393565067,0.0111550160317084
33.611031312841135,0.0083477143312855
33.6397586900316,0.0086823982878429
33.66848606722206,0.0080193594546308
33.697213444412526,0.0076896034052194
33.72594082160298,0.0068119554707046
33.754668198793446,0.0067182960228241
33.78339557598391,0.0067009336700762
33.812122953174374,0.0057686912903394
33.84085033036484,0.0056386917179719
33.8695777075553,0.0056233525819097
33.89830508474576,0.0055487885289658
33.92703246193622,0.0054326638763285
33.955759839126685,0.0053754223905519
33.98448721631715,0.0054811743732329
34.01321459350761,0.0056682056266242
34.041941970698076,0.0054466016416812
34.07066934788853,0.005562164884441
34.099396725078996,0.0056883099171099
34.12812410226946,0.0058343061150066
34.156851479459924,0.0055481978940169
34.18557885665039,0.0061595532879788
34.21430623384085,0.0057031466731903
34.24303361103131,0.0052192716599324
34.27176098822177,0.0061383104606641
34.300488365412235,0.005425838957165
34.3292157426027,0.005555826902075
34.35794311979316,0.0058379056850244
34.386670496983626,0.0056957351348721
34.41539787417408,0.0057251944060509
34.44412525136455,0.0058079918204226
34.47285262855501,0.0055914855239287
34.501580005745474,0.0053433902664184
34.53030738293594,0.005095993730226
34.5590347601264,0.0050860044982423
34.58776213731686,0.0049918201280274
34.61648951450732,0.0049214651989619
34.645216891697785,0.0050627992698943
34.67394426888825,0.0051441558641009
34.70267164607871,0.0050363721181345
34.73139902326918,0.0050265539843647
34.76012640045963,0.0052697770776878
34.7888537776501,0.0052080153391806
34.81758115484056,0.0050220721554794
34.846308532031024,0.0048185049885445
34.87503590922149,0.0049128730686885
34.90376328641195,0.0052102407530223
34.93249066360241,0.0049455555681704
34.96121804079287,0.004957567929835
34.989945417983336,0.0051076010509944
35.0186727951738,0.0048513730005925
35.04740017236426,0.0050651467558871
35.07612754955473,0.0055103868369018
35.10485492674518,0.0053218326866973
35.13358230393565,0.0043473574429685
35.16230968112611,0.0047241712890674
35.191037058316574,0.0046258913765735
35.21976443550704,0.0046446361191388
35.2484918126975,0.00474906568522
35.27721918988796,0.0044571839345755
35.30594656707842,0.004791896607371
35.334673944268886,0.0046165547788638
35.36340132145935,0.0045000815082398
35.39212869864981,0.0046212107200746
35.42085607584027,0.004735078775438
35.44958345303073,0.0046758799126295
35.4783108302212,0.0045467917481727
35.50703820741166,0.0044274163289951
35.535765584602125,0.0042614134576235
35.56449296179259,0.0043941059312697
35.593220338983045,0.0046752229452939
35.62194771617351,0.0045284758480829
35.65067509336397,0.0043213088749709
35.679402470554436,0.0046260332047954
35.7081298477449,0.0046630938574929
35.73685722493536,0.0044896583673037
35.76558460212582,0.0048837679180837
35.794311979316284,0.0050441479248241
35.82303935650675,0.0046535900220868
35.85176673369721,0.0047530353788623
35.880494110887675,0.0042863167479729
35.90922148807814,0.0044301474711574
35.937948865268595,0.0046367326587902
35.96667624245906,0.0042323048741495
35.99540361964952,0.0043298523273387
36.024130996839986,0.0046235843457769
36.05285837403045,0.0047371203700431
36.08158575122091,0.0047621199942311
36.11031312841137,0.0048548527877226
36.139040505601834,0.0051564988592923
36.1677678827923,0.0049695422088534
36.19649525998276,0.0054089472903346
36.225222637173225,0.0053217831510842
36.25395001436369,0.004594022011241
36.282677391554145,0.0045896663742933
36.31140476874461,0.0048161219197298
36.34013214593507,0.0046555426854414
36.368859523125536,0.004683223260439
36.397586900316,0.0040653442457157
36.426314277506464,0.0041840212244566
36.45504165469692,0.0045368929067871
36.483769031887384,0.0049849338344318
36.51249640907785,0.004884911633694
36.54122378626831,0.0049525244201646
36.569951163458775,0.0052238581281857
36.59867854064924,0.0054554261432032
36.627405917839695,0.0058144968544613
36.65613329503016,0.0057723758685456
36.68486067222062,0.0049117993678144
36.713588049411086,0.0049532387813193
36.74231542660155,0.005478905231592
36.771042803792014,0.0049891370021393
36.79977018098247,0.0052649974047148
36.828497558172934,0.0050617307555538
36.8572249353634,0.0048818480500553
36.88595231255386,0.0043266948393799
36.914679689744325,0.0049433842002407
36.94340706693479,0.0051560779858593
36.972134444125246,0.0050432304557495
37.00086182131571,0.004944084270471
37.02958919850617,0.0050860525691039
37.05831657569664,0.0050624411275258
37.0870439528871,0.0053039504869188
37.11577133007757,0.0057162378646795
37.14449870726802,0.0053657321611186
37.17322608445848,0.0048877036187563
37.20195346164895,0.0058274912601853
37.23068083883941,0.0055911769391665
37.259408216029875,0.0051749473329351
37.28813559322034,0.0050302959739131
37.3168629704108,0.0017458664108993
37.34559034760126,0.0151152895136499
37.37431772479172,0.0054866857938722
37.40304510198219,0.01894786054706193
37.43177247917265,0.014722655127425556
37.460499856363114,0.0189919232363462
37.48922723355357,0.0123074513831913
37.517954610744034,0.0174867202904318
37.5466819879345,0.0175885889535382
37.57540936512496,0.0176803623528409
37.604136742315426,0.0159849306927576
37.63286411950589,0.0123191546850092
37.661591496696346,0.0097502698770307
37.69031887388681,0.0080654205587081
37.71904625107727,0.0069272235888032
37.74777362826774,0.0074728619958136
37.7765010054582,0.0081380345197161
37.805228382648664,0.006783494916132
37.83395575983912,0.0071038810378783
37.862683137029585,0.0070015496503191
37.89141051422005,0.0066456889128185
37.92013789141051,0.0065084101202469
37.948865268600976,0.0064834492812032
37.97759264579144,0.0057678225328248
38.006320022981896,0.0046757426219066
38.03504740017236,0.0073915829750668
38.06377477736282,0.0057170358693317
38.09250215455329,0.0053086561060008
38.12122953174375,0.0057031563827485
38.149956908934215,0.005611119055278
38.17868428612467,0.0053798561727458
38.207411663315135,0.0058682673676448
38.2361390405056,0.0061751818811304
38.26486641769606,0.005649742133927
38.293593794886526,0.0050215345913287
38.32232117207699,0.005785809853083
38.351048549267446,0.0051654433237261
38.37977592645791,0.005710867249489
38.408503303648374,0.0055968701046941
38.43723068083884,0.0067111618404773
38.4659580580293,0.0064217205451518
38.494685435219765,0.0068311473384765
38.52341281241022,0.0069040885662853
38.552140189600685,0.0064022101232505
38.58086756679115,0.0064250115571522
38.60959494398161,0.0068527654595284
38.63832232117208,0.0063127553600822
38.66704969836254,0.0056247548507602
38.69577707555299,0.005658879648411
38.72450445274346,0.0056090972046877
38.75323182993392,0.0056277505237487
38.78195920712439,0.0053186351090444
38.81068658431485,0.0054622067008503
38.839413961505315,0.0052085960266966
38.86814133869577,0.0050422661943574
38.896868715886235,0.0055734839758885
38.9255960930767,0.0058723158432521
38.95432347026716,0.0058027809009497
38.983050847457626,0.0055987331804332
39.01177822464809,0.0060025795683326
39.04050560183855,0.0056199579154417
39.06923297902901,0.0047641375420917
39.097960356219474,0.005497124396013
39.12668773340994,0.0054041823957978
39.1554151106004,0.0048536154680311
39.184142487790865,0.0052258011767923
39.21286986498132,0.0053957966222108
39.241597242171785,0.0061704575691121
39.27032461936225,0.0057241769888474
39.29905199655271,0.004192135676364
39.32777937374318,0.0074151647393397
39.35650675093364,0.0050191113799236
39.3852341281241,0.0045001913303917
39.41396150531456,0.0051169759243962
39.442688882505024,0.0044235459252771
39.47141625969549,0.0041470550808393
39.50014363688595,0.0042477092996385
39.528871014076415,0.0041867409806003
39.55759839126687,0.0043985610997076
39.586325768457336,0.0046682119896304
39.6150531456478,0.0042771183643226
39.64378052283826,0.0046168313557796
39.67250790002873,0.0044841555095572
39.70123527721919,0.0045169932550073
39.72996265440965,0.0046874271784787
39.75869003160011,0.0046017927837281
39.787417408790574,0.0045801037458902
39.81614478598104,0.0043682793197764
39.8448721631715,0.0042961753317227
39.873599540361965,0.0050671401066985
39.90232691755242,0.004517960645668
39.931054294742886,0.0042634258947697
39.95978167193335,0.0048986135635172
39.98850904912381,0.0048114045300485
40.01723642631428,0.0047513023857095
40.04596380350474,0.0050575875450712
40.0746911806952,0.0052708330313203
40.10341855788566,0.0047088166437069
40.132145935076124,0.0046710300625976
40.16087331226659,0.0048188018765887
40.18960068945705,0.0047571990179269
40.21832806664752,0.0047080003306433
40.24705544383797,0.004849412609932
40.27578282102843,0.0049340841380689
40.3045101982189,0.004816827054626
40.33323757540936,0.0048622403152947
40.36196495259983,0.0047380873048527
40.39069232979029,0.0046879170569946
40.41941970698075,0.0047876437564992
40.44814708417121,0.0046709913126458
40.476874461361675,0.0044753650066936
40.50560183855214,0.0044507707982499
40.5343292157426,0.0044372080071362
40.563056592933066,0.0044119296590771
40.59178397012352,0.004474933607956
40.620511347313986,0.0044487834172957
40.64923872450445,0.0041951917415634
40.67796610169491,0.004150003360624
40.70669347888538,0.0043861445880328
40.73542085607584,0.0046778465946121
40.7641482332663,0.0045163296137356
40.79287561045676,0.0046350434003
40.821602987647225,0.0042039306020239
40.85033036483769,0.0049217384416604
40.87905774202815,0.0050808538970381
40.907785119218616,0.0047666285031373
40.93651249640907,0.0046284701321297
40.965239873599536,0.0049003081913231
40.99396725079,0.0049390381863445
41.022694627980464,0.0046697802757723
41.05142200517093,0.0052467058291145
41.08014938236139,0.0049161829679709
41.10887675955185,0.0048364036113103
41.13760413674231,0.0051540387406996
41.166331513932775,0.0048045835789993
41.19505889112324,0.0048180931958201
41.2237862683137,0.0046065256619238
41.25251364550416,0.0048973092097809
41.28124102269462,0.0045607023117605
41.309968399885086,0.00308081426274
41.33869577707555,0.0114365737635151
41.367423154266014,0.0021676520664435
41.39615053145648,0.017863231065303836
41.424877908646934,0.01697587188092454
41.4536052858374,0.0235747031003245
41.48233266302786,0.0192064289109083
41.511060040218325,0.027606642379052
41.53978741740879,0.0264490333404536
41.56851479459925,0.0257998574642229
41.59724217178971,0.0251246454211037
41.62596954898017,0.0336674774373731
41.65469692617064,0.0164166279959176
41.6834243033611,0.0159438969674061
41.71215168055157,0.0024425985457953
41.74087905774203,0.0106543854876536
41.76960643493248,0.0100685653956118
41.79833381212295,0.0082290085055215
41.82706118931341,0.008629341061085
41.855788566503875,0.0074334428741113
41.88451594369434,0.0069135476000189
41.9132433208848,0.0069758952495473
41.94197069807526,0.0070443853618483
41.97069807526572,0.0068325040524588
41.99942545245619,0.0062344433612476
42.02815282964665,0.0056479710072959
42.056880206837114,0.0053984687175977
42.08560758402758,0.0054081140893715
42.114334961218034,0.005436921832821
42.1430623384085,0.0050889428876413
42.17178971559896,0.0046337296009435
42.200517092789426,0.0052848991650981
42.22924446997989,0.0058014118740127
42.25797184717035,0.0026188414770081
42.28669922436081,0.0041449206702332
42.31542660155127,0.0078793751676504
42.34415397874174,0.0050545292401327
42.3728813559322,0.0055344652813667
42.401608733122664,0.0057390016319626
42.43033611031313,0.0048683546602212
42.459063487503585,0.0051527450110824
42.48779086469405,0.0053722437595407
42.51651824188451,0.0053020749833465
42.545245619074976,0.0053481891654222
42.57397299626544,0.004962337125449
42.6027003734559,0.0052562663430667
42.63142775064636,0.0054431415199041
42.66015512783682,0.0055582380996985
42.68888250502729,0.0053591613284194
42.71760988221775,0.0051274307492493
42.746337259408214,0.0050279269103012
42.77506463659868,0.0050397538881646
42.803792013789135,0.0052308273129199
42.8325193909796,0.00452131400483
42.86124676817006,0.0047642911094172
42.889974145360526,0.0048065755366282
42.91870152255099,0.0045606799889582
42.94742889974145,0.0047585303004121
42.97615627693191,0.0047295263196792
43.004883654122374,0.0047627635975856
43.03361103131284,0.0048206197003334
43.0623384085033,0.0042031279512208
43.091065785693765,0.0044420038481212
43.11979316288423,0.0048079322305734
43.148520540074685,0.004456962975209
43.17724791726515,0.0043452490786894
43.20597529445561,0.0044563865967922
43.23470267164608,0.0047628507578104
43.26343004883654,0.0050602535109502
43.292157426027,0.004937079606784
43.32088480321746,0.0046064214176176
43.34961218040792,0.0047810247466158
43.37833955759839,0.0049191751543356
43.40706693478885,0.0049280934348663
43.435794311979315,0.0048204033310725
43.46452168916978,0.0047376889257887
43.493249066360235,0.0050786405368958
43.5219764435507,0.0042888976193581
43.55070382074116,0.0056137641857408
43.579431197931626,0.0052481093858361
43.60815857512209,0.0047019767364143
43.636885952312554,0.0052049294494105
43.66561332950301,0.005376068897121
43.694340706693474,0.0048961471923098
43.72306808388394,0.004737414634766
43.7517954610744,0.0050951879995354
43.780522838264865,0.0051583917507926
43.80925021545533,0.0047853309285014
43.837977592645785,0.0052049895264444
43.86670496983625,0.005204242807151
43.89543234702671,0.0062324071436868
43.924159724217176,0.0053944569277245
43.95288710140764,0.0052605184517659
43.981614478598104,0.005287624310643
44.01034185578856,0.005097921335003
44.039069232979024,0.0050195854807253
44.06779661016949,0.0053775299902789
44.09652398735995,0.0054450020535134
44.125251364550415,0.0043327430286366
44.15397874174088,0.004481342298913
44.182706118931335,0.004411753811678
44.2114334961218,0.0045447788181979
44.24016087331226,0.0046842341518272
44.26888825050273,0.0047348716851376
44.29761562769319,0.0046283996035497
44.326343004883654,0.0047551451473524
44.35507038207411,0.0052038759359291
44.383797759264574,0.0044193116768559
44.41252513645504,0.005668403600725
44.4412525136455,0.0062168465930249
44.469979890835965,0.005427055391772
44.49870726802643,0.0055468951762437
44.527434645216886,0.0053816866144305
44.55616202240735,0.0053678088528434
44.58488939959781,0.0054290131664037
44.61361677678828,0.0058879338190957
44.64234415397874,0.0059158629339108
44.6710715311692,0.0049256573992963
44.69979890835966,0.0046647298310383
44.72852628555013,0.0050730666729366
44.75725366274059,0.005745460382752
44.78598103993105,0.0054599071270323
44.81470841712152,0.0052968122972779
44.84343579431198,0.0053691782274104
44.87216317150243,0.0054741176500657
44.9008905486929,0.0054051669314605
44.92961792588336,0.00576008378379
44.95834530307383,0.0055365510666095
44.98707268026429,0.0056274961620698
45.015800057454754,0.0048577458255721
45.04452743464521,0.0053028233654153
45.073254811835675,0.0049846593421152
45.10198218902614,0.0056839144368515
45.1307095662166,0.0055760418255414
45.159436943407066,0.0053107996363102
45.18816432059753,0.0058307131989619
45.216891697787986,0.0058755301495197
45.24561907497845,0.0049871656586482
45.27434645216891,0.0055309036220272
45.30307382935938,0.0056968510795749
45.33180120654984,0.005497477540147
45.360528583740304,0.0052117901280528
45.38925596093076,0.0050551977387101
45.417983338121225,0.0050493399279742
45.44671071531169,0.0051125888376831
45.47543809250215,0.0056642346202519
45.504165469692616,0.0080012181957887
45.53289284688308,0.0096606403181344
45.561620224073536,0.0109301821608784
45.590347601264,0.0130526413171545
45.619074978454464,0.0153155146085738
45.64780235564493,0.015640554814971
45.67652973283539,0.0155781961749736
45.705257110025855,0.0163837480877933
45.73398448721631,0.01442843713265
45.762711864406775,0.0156406026914632
45.79143924159724,0.010654901768854
45.8201666187877,0.0081846022966642
45.848893995978166,0.0100806595932245
45.87762137316863,0.0092095983107131
45.906348750359086,0.006707010096494
45.93507612754955,0.0065185511183115
45.963803504740014,0.0062660108574929
45.99253088193048,0.0067680960332974
46.02125825912094,0.0063624178064554
46.049985636311405,0.0056737567798262
46.07871301350186,0.0052396396772269
46.107440390692325,0.0051547820934216
46.13616776788279,0.0048055836701854
46.16489514507325,0.0052531805755405
46.19362252226371,0.0052879972932069
46.22234989945418,0.0049037160677195
46.25107727664464,0.0052556778258838
46.2798046538351,0.0050662431484791
46.30853203102557,0.0057414915539995
46.33725940821603,0.0058354436657422
46.36598678540649,0.0055370069708376
46.394714162596955,0.0053301006915655
46.42344153978741,0.0052235637539216
46.452168916977875,0.0052475920890527
46.48089629416834,0.0051939624768188
46.5096236713588,0.004632900350232
46.538351048549266,0.0046948306527303
46.56707842573973,0.0051229111852746
46.59580580293019,0.0051500956952241
46.62453318012065,0.0049264113630243
46.653260557311114,0.0048054321773309
46.68198793450158,0.0049388721108537
46.71071531169204,0.0045987412856892
46.739442688882505,0.0044863398356856
46.76817006607296,0.0044632171706261
46.796897443263425,0.0042187883176013
46.82562482045389,0.0041835699771848
46.85435219764435,0.0050825378062475
46.88307957483482,0.0051648289157883
46.91180695202528,0.0050577022776898
46.94053432921574,0.0053409215880865
46.9692617064062,0.0053113038413918
46.997989083596664,0.0055349000648385
47.02671646078713,0.005171672372213
47.05544383797759,0.004558118286939
47.08417121516805,0.0049259343730591
47.11289859235851,0.0048903435640039
47.141625969548976,0.0047306812224892
47.17035334673944,0.0047383787761703
47.1990807239299,0.0048751332717775
47.22780810112037,0.0051343536323074
47.25653547831082,0.0053484285576437
47.28526285550129,0.0053094601667094
47.31399023269175,0.0053121044448839
47.342717609882214,0.0053233698622826
47.37144498707268,0.0050074390453702
47.40017236426314,0.0050739861775727
47.4288997414536,0.0047211777432757
47.45762711864406,0.0045709200641318
47.486354495834526,0.0051106129096345
47.51508187302499,0.0050608878827854
47.54380925021545,0.0051034441421699
47.57253662740592,0.0054780430591358
47.60126400459637,0.0054110472411423
47.62999138178684,0.0055188310266579
47.6587187589773,0.0049748286650919
47.687446136167765,0.0062499574908124
47.71617351335823,0.005850574222057
47.74490089054869,0.0053442330599876
47.77362826773915,0.0055431234822021
47.80235564492961,0.005619668490542
47.83108302212008,0.0055862863827369
47.85981039931054,0.0057264033016945
47.888537776501,0.005605459945692
47.91726515369147,0.0056662338287005
47.94599253088192,0.0054259827587808
47.97471990807239,0.0054467158147675
48.00344728526285,0.0053450080172152
48.032174662453315,0.0050583429467416
48.06090203964378,0.0047413408924939
48.08962941683424,0.0039520178902326
48.1183567940247,0.004739739574092
48.14708417121516,0.0049493123132544
48.175811548405626,0.0047200528428433
48.20453892559609,0.005089910609437
48.233266302786554,0.0053937549713516
48.26199367997702,0.0050757555920629
48.290721057167474,0.004892169432695
48.31944843435794,0.0059055089158421
48.3481758115484,0.0055246607807803
48.376903188738865,0.0055654897855821
48.40563056592933,0.0052138978097186
48.43435794311979,0.0052017249449096
48.46308532031025,0.0054477013331742
48.49181269750071,0.0054346025690318
48.520540074691176,0.00552616507799
48.54926745188164,0.0054200224204792
48.577994829072104,0.0051621194805512
48.60672220626257,0.0050937595723029
48.635449583453024,0.0053938275004922
48.66417696064349,0.0048304275398414
48.69290433783395,0.0051828927289883
48.721631715024415,0.0050921120877135
48.75035909221488,0.0050842637048416
48.77908646940534,0.0050853500960472
48.8078138465958,0.0050682170893257
48.83654122378626,0.005443536414359
48.86526860097673,0.0050803089506073
48.89399597816719,0.0052635333632562
48.922723355357654,0.0050936421045934
48.95145073254812,0.0054765509710356
48.980178109738574,0.0058411897969984
49.00890548692904,0.0055121393558793
49.0376328641195,0.0050991375745433
49.066360241309965,0.004946101757685
49.09508761850043,0.0048222849165195
49.12381499569089,0.0047853928898437
49.15254237288135,0.0052236290156187
49.18126975007181,0.0048256762983978
49.20999712726228,0.0047566983349555
49.23872450445274,0.004755154962899
49.2674518816432,0.0046700517357437
49.29617925883367,0.0046577754766267
49.32490663602413,0.0050904071988825
49.35363401321459,0.0047460532257445
49.38236139040505,0.0219861166179048
49.411088767595515,0.0457297887160637
49.43981614478598,0.044228356063643
49.46854352197644,0.0274643190264684
49.4972708991669,0.0322958209117534
49.52599827635736,0.0316561962643127
49.55472565354783,0.0326127498338776
49.58345303073829,0.0270194806842302
49.612180407928754,0.01724836539110305
49.64090778511922,0.015421280708174943
49.669635162309675,0.015028360591486316
49.69836253950014,0.0132320594241399
49.7270899166906,0.0082779202089346
49.755817293881066,0.0089710571323352
49.78454467107153,0.0081165297732317
49.81327204826199,0.0074223475280799
49.84199942545245,0.0075637290104587
49.87072680264291,0.006952604171449
49.89945417983338,0.0067747292906617
49.92818155702384,0.0058851651802323
49.956908934214304,0.0062240800194321
49.98563631140477,0.006433949952103
50.014363688595225,0.0060597663091787
50.04309106578569,0.0058625308057536
50.07181844297615,0.00599626608577
50.100545820166616,0.0058969577244215
50.12927319735708,0.0062321057448353
50.15800057454754,0.0054474854351016
50.186727951738,0.0082316853169045
50.21545532892846,0.0056814890208029675
50.24418270611893,0.0050424118245657
50.27291008330939,0.0045612496405175
50.301637460499855,0.0045739961628932
50.33036483769032,0.0049419963711963
50.359092214880775,0.0054936643442748
50.38781959207124,0.0059817582578127
50.4165469692617,0.0055132024761673
50.445274346452166,0.0063513171186359
50.47400172364263,0.0057228979425083
50.50272910083309,0.0058328632263199
50.53145647802355,0.0061816409632279
50.560183855214014,0.0070913860642396
50.58891123240448,0.0054804249793401
50.61763860959494,0.0060947189083866
50.646365986785405,0.0058436892420054
50.67509336397587,0.0061472208545853
50.703820741166325,0.0062809219267137
50.73254811835679,0.0060665422192747
50.76127549554725,0.0057456223835881
50.79000287273771,0.0052779028852297
50.81873024992818,0.0051065158062438
50.84745762711864,0.0053569454816107
50.8761850043091,0.0039865963096087
50.90491238149957,0.0043919784255241
50.93363975869003,0.0048695237092521
50.96236713588049,0.0039040519392443
50.991094513070955,0.0042841784230026
51.01982189026142,0.0044263565895614
51.048549267451875,0.0043577338365723
51.07727664464234,0.0045244423375693
51.1060040218328,0.0044191098223751
51.134731399023266,0.0046072961320011
51.16345877621373,0.004923949986171
51.192186153404194,0.0046151093015038
51.22091353059465,0.0045229245577132
51.249640907785114,0.0043470821177776
51.27836828497558,0.0043850175833057
51.30709566216604,0.004536316236363
51.335823039356505,0.0045330198471771
51.36455041654697,0.0043964061140367
51.393277793737425,0.0042163073078486
51.42200517092789,0.00433906145743
51.45073254811835,0.0045550717624267
51.47945992530882,0.0046599853690399
51.50818730249928,0.004693370885437
51.536914679689744,0.004631142750001
51.5656420568802,0.0044446718832896
51.594369434070664,0.0045173736516597
51.62309681126113,0.0048056907115511
51.65182418845159,0.0047621639701461
51.680551565642055,0.0046407865442631
51.70927894283252,0.0046705311183702
51.738006320022976,0.0046603852043275
51.76673369721344,0.0046119186712116
51.7954610744039,0.0051201946477916
51.82418845159437,0.0048226313034583
51.85291582878483,0.004906269760735
51.881643205975294,0.0049629684167442
51.91037058316575,0.0053369182589026
51.939097960356214,0.0053797570370915
51.96782533754668,0.0044300595987104
51.99655271473714,0.007994065391639
52.025280091927605,0.0059842780003217
52.05400746911807,0.0021908051776997
52.082734846308526,0.0052486238258535
52.11146222349899,0.0050671007623559
52.14018960068945,0.005025824274527
52.16891697787992,0.005133673399125
52.19764435507038,0.0059217296430249
52.22637173226085,0.0044759019195253
52.2550991094513,0.0046751979310421
52.283826486641765,0.004821630956443
52.31255386383223,0.0046726395246035
52.34128124102269,0.0046370396099759
52.37000861821315,0.0050718078776555
52.39873599540362,0.0054386426417776
52.42746337259408,0.0044509788301274
52.45619074978454,0.0050244292876882
52.484918126975,0.0050606923697171
52.51364550416547,0.0051821884341253
52.54237288135593,0.0051350427816844
52.571100258546394,0.0050727262259665
52.59982763573685,0.0054653447263574
52.628555012927315,0.005486129216991
52.65728239011778,0.0048683961982881
52.68600976730824,0.0059534809612361
52.714737144498706,0.0054408132798461
52.74346452168917,0.0057740651169405
52.772191898879626,0.0054453633807554
52.80091927607009,0.0054329113036668
52.82964665326055,0.0056620841939013
52.85837403045102,0.0055725111047312
52.88710140764148,0.0052213295034449
52.915828784831945,0.0053831778430904
52.9445561620224,0.0054424123448903
52.973283539212865,0.0053098832752582
53.00201091640333,0.0051376839541201
53.03073829359379,0.0049217118996988
53.059465670784256,0.0048752698076476
53.08819304797471,0.0049390730692896
53.116920425165176,0.0043203075788172
53.14564780235564,0.00489880322186
53.174375179546104,0.004254185922344
53.20310255673657,0.0061620212172749
53.23182993392703,0.0051839869415245
53.26055731111749,0.0049131225413526
53.28928468830795,0.0052129004285208
53.318012065498415,0.0052772138251761
53.34673944268888,0.0055252201405036
53.37546681987934,0.0050385695200944
53.404194197069806,0.0053034304203566
53.43292157426026,0.0097820368045458
53.46164895145073,0.02138928351523
53.49037632864119,0.0298420521226772
53.519103705831654,0.0311033948420672
53.54783108302212,0.031123781861517
53.57655846021258,0.0312538227918848
53.60528583740304,0.0311679339921035
53.6340132145935,0.032580593159978
53.662740591783965,0.0286147937844667
53.69146796897443,0.0239904828779325
53.72019534616489,0.0285525883694334
53.74892272335536,0.0129104620205398
53.77765010054581,0.0082277501939667
53.80637747773628,0.0080856966514602
53.83510485492674,0.0085331084415468
53.8638322321172,0.0081612035957369
53.89255960930767,0.0075756209273004
53.92128698649813,0.0072956174100446
53.95001436368859,0.0078026949730498
53.97874174087905,0.0073556761252048
54.007469118069515,0.0048390472851619
54.03619649525998,0.00673884029436
54.06492387245044,0.0059533424584348
54.09365124964091,0.005515630079195
54.12237862683136,0.0058630154703797
54.15110600402183,0.0057506015695266
54.17983338121229,0.0052013870083376
54.208560758402754,0.0058300782005859
54.23728813559322,0.0058676755360677
54.26601551278368,0.0054936560271662
54.29474288997414,0.0057681375029721
54.3234702671646,0.0063403736548822
54.352197644355066,0.0059187224970968
54.38092502154553,0.0056788873679071
54.40965239873599,0.0057976766642018
54.43837977592646,0.005906942897754
54.46710715311691,0.0056171371356839
54.49583453030738,0.0058779081976404
54.52456190749784,0.0055864989740191
54.553289284688304,0.0053801195726451
54.58201666187877,0.0053655573145128
54.61074403906923,0.0053710649979955
54.63947141625969,0.0052849020252699
54.66819879345015,0.0052700398846111
54.696926170640616,0.0057589969561575
54.72565354783108,0.0054034901587485
54.75438092502154,0.0047962237412819
54.78310830221201,0.005571196548894
54.81183567940246,0.0055725645616895
54.84056305659293,0.0033646579679622
54.86929043378339,0.0060082205017124
54.898017810973855,0.0072812915224855
54.92674518816432,0.0049797408039418
54.95547256535478,0.0051899927076146
54.98419994254524,0.0056469997410793
55.0129273197357,0.0055335651421965
55.041654696926166,0.0054213203805717
55.07038207411663,0.0058208970322326
55.09910945130709,0.0054626062772417
55.12783682849756,0.00551486972804
55.156564205688014,0.0053748366755613
55.18529158287848,0.0056831680476226
55.21401896006894,0.0050580268249872
55.242746337259405,0.0049808576319319
55.27147371444987,0.0051958005453286
55.30020109164033,0.004560783699155
55.32892846883079,0.0047700890479807
55.35765584602125,0.0049339251516266
55.38638322321171,0.004672158041635
55.41511060040218,0.0047531680178125
55.44383797759264,0.0052921984422607
55.47256535478311,0.0050785169940025
55.50129273197357,0.005239061526319
55.53002010916403,0.0053720106227107
55.55874748635449,0.005343034908117
55.587474863544955,0.0052793966466411
55.61620224073542,0.0053100403155767
55.64492961792588,0.0051547286708535
55.67365699511634,0.0052232483575916
55.7023843723068,0.0055143418404022
55.731111749497266,0.0054189504819818
55.75983912668773,0.0051685597794732
55.788566503878194,0.0057219038283443
55.81729388106866,0.0056730568905121
55.846021258259114,0.0057748696845479
55.87474863544958,0.0059815051743668
55.90347601264004,0.0057765100700373
55.932203389830505,0.0056036147453555
55.96093076702097,0.0057714599791078
55.98965814421143,0.0057471008505051
56.01838552140189,0.0052220864722218
56.04711289859235,0.0048132285773975
56.07584027578282,0.0054625250928656
56.10456765297328,0.0047109962230018
56.133295030163744,0.0050785758025885
56.16202240735421,0.0050756806256123
56.190749784544664,0.0058908261921073
56.21947716173513,0.0064412565422599
56.24820453892559,0.0063545652276761
56.276931916116055,0.0062189988597964
56.30565929330652,0.0065284367818535
56.33438667049698,0.0066374826695044
56.36311404768744,0.0058789978651207
56.3918414248779,0.0054408799812941
56.42056880206837,0.0054307435817916
56.44929617925883,0.0046776899542851
56.478023556449294,0.0050235157896875
56.50675093363976,0.00472200356865
56.535478310830214,0.0048860320762894
56.56420568802068,0.0047371485866909
56.59293306521114,0.0043975494063023
56.621660442401605,0.0046831094907083
56.65038781959207,0.0045938177347069
56.67911519678253,0.0047021709691061
56.70784257397299,0.0047538046917553
56.73656995116345,0.0047716885438284
56.76529732835392,0.0044031135284782
56.79402470554438,0.0039271286516292
56.82275208273485,0.0042245614137058
56.85147945992531,0.0048898427624326
56.880206837115765,0.0046238134092111
56.90893421430623,0.0047782454250244
56.93766159149669,0.0043070909875008
56.96638896868715,0.0045745215300104
56.99511634587762,0.0047628558585763
57.02384372306808,0.0047428798893701
57.05257110025854,0.0047371775555739
57.081298477449,0.004724044418191
57.11002585463947,0.0047125335720175
57.13875323182993,0.0048319852607289
57.167480609020394,0.0051662520254437
57.19620798621086,0.0051538145953295
57.224935363401315,0.0050836549930641
57.25366274059178,0.0049588641449687
57.28239011778224,0.0055466953961268
57.311117494972706,0.0048085228944149
57.33984487216317,0.0051432743907697
57.36857224935363,0.004709459475256
57.39729962654409,0.0051847277788501
57.42602700373455,0.0050906382601039
57.45475438092502,0.0048625820657859
57.48348175811548,0.0049396177531747
57.512209135305945,0.0047392877472344
57.54093651249641,0.0051091548482832
57.569663889686865,0.0066171382080197
57.59839126687733,0.0079446420088689
57.62711864406779,0.0115180822496832
57.655846021258256,0.0133035531693008
57.68457339844872,0.0137734025387025
57.71330077563918,0.013459594048139
57.74202815282964,0.0129305915609139
57.770755530020104,0.0151240040551104
57.79948290721057,0.0120555131869633
57.82821028440103,0.008032543772849
57.856937661591495,0.0107546434880316
57.88566503878196,0.0096610845743215
57.914392415972415,0.0049529398501266
57.94311979316288,0.0069921460064032
57.97184717035334,0.007109748722196
58.000574547543806,0.0063621231771563
58.02930192473427,0.006486299412938
58.05802930192473,0.0066599447933517
58.08675667911519,0.0064765769942985
58.115484056305654,0.0064482474500848
58.14421143349612,0.006340580658627
58.17293881068658,0.0060277867325938
58.201666187877045,0.0063543455509073
58.23039356506751,0.0060120221735273
58.259120942257965,0.0056481333336286
58.28784831944843,0.0054196903499851
58.31657569663889,0.005329750028889
58.34530307382936,0.0053342470192282
58.37403045101982,0.0052403494744812
58.40275782821029,0.0054370097093553
58.43148520540074,0.0058614892732187
58.4602125825912,0.0065618534458007
58.48893995978167,0.0059013827460862
58.51766733697213,0.0067654028335247
58.546394714162595,0.0063869273871216
58.57512209135306,0.0062160081776791
58.603849468543515,0.0061855277758784
58.63257684573398,0.0062543601881208
58.66130422292444,0.0053969420985676
58.69003160011491,0.0055507341960205
58.71875897730537,0.0055424193925889
58.747486354495834,0.0054163687823537
58.77621373168629,0.0054049386369278
58.804941108876754,0.0052275511807075
58.83366848606722,0.0052672797724787
58.86239586325768,0.0052271133627051
58.891123240448145,0.0054774578349074
58.9198506176386,0.0051332993862741
58.948577994829066,0.0053782528248266
58.97730537201953,0.0051337092577211
59.00603274920999,0.0046677183700709
59.03476012640046,0.0051361591834073
59.06348750359092,0.004902260067086
59.09221488078138,0.0051823660396891
59.12094225797184,0.0045267471836697
59.149669635162304,0.0053666908401916
59.17839701235277,0.0046448063514189
59.20712438954323,0.0049978999436404
59.235851766733695,0.0048734815542913
59.26457914392415,0.0048427172935987
59.293306521114616,0.0050820765675377
59.32203389830508,0.0051306203758587
59.35076127549554,0.0048627921261378
59.37948865268601,0.004580333626405
59.40821602987647,0.0046850401988099
59.43694340706693,0.0047181096389331
59.46567078425739,0.004632595353045
59.494398161447855,0.0048059396752215
59.52312553863832,0.0045736192196135
59.55185291582878,0.0045908358709634
59.580580293019246,0.0043345551078609
59.6093076702097,0.0041835516254136
59.638035047400166,0.0048706364247835
59.66676242459063,0.0044698663802004
59.69548980178109,0.0044508682016989
59.72421717897156,0.0045677981225893
59.75294455616202,0.0043907491252472
59.78167193335248,0.0045244571323347
59.81039931054294,0.0046614743651896
59.839126687733405,0.0046843198982514
59.86785406492387,0.0044170925157144
59.89658144211433,0.0043993481378033
59.9253088193048,0.0045127430363969
59.95403619649525,0.0047934554271175
59.98276357368571,0.004559215286536
60.01149095087618,0.0048785286458387
60.04021832806664,0.0047322449632785
60.06894570525711,0.0048614407322103
60.09767308244757,0.0048490101469821
60.12640045963803,0.0047270562321204
60.15512783682849,0.0046318441931837
60.183855214018955,0.0044450177363172
60.21258259120942,0.0043642294099811
60.24130996839988,0.0045436963697616
60.270037345590346,0.004429094055859
60.2987647227808,0.0043515944002287
60.327492099971266,0.0044676199664566
60.35621947716173,0.0044183177050601
60.384946854352194,0.0044063357016535
60.41367423154266,0.0047224703791089
60.44240160873312,0.0046769856003666
60.47112898592358,0.0044683886918396
60.49985636311404,0.0049196133747536
60.528583740304505,0.0051186225368543
60.55731111749497,0.0049787167721874
60.58603849468543,0.0050078866012166
60.614765871875896,0.0049982567156083
60.64349324906635,0.0047982960573986
60.672220626256816,0.0045409051515522
60.70094800344728,0.0045406567618002
60.729675380637744,0.0044820983886829
60.75840275782821,0.004293334890991
60.78713013501867,0.0042934530237646
60.81585751220913,0.0046087122417757
60.84458488939959,0.004300487993316
60.873312266590055,0.0052293888798722
60.90203964378052,0.0048379753762374
60.93076702097098,0.0045094125304438
60.959494398161446,0.0047154208852576
60.9882217753519,0.0046802980300316
61.01694915254237,0.0043912733796233
61.04567652973283,0.0045487318580715
61.074403906923294,0.0047870322636511
61.10313128411376,0.0048225116729317
61.13185866130422,0.0047943471432468
61.16058603849468,0.0047230044640527
61.18931341568514,0.0045718967953824
61.218040792875605,0.0045744863028218
61.24676817006607,0.0046801727469419
61.27549554725653,0.0049787094028011
61.304222924447,0.0052480213588468
61.33295030163745,0.0052311023509927
61.36167767882792,0.0053217451500331
61.39040505601838,0.0054754898839212
61.41913243320885,0.0052708861765765
61.44785981039931,0.0045070776336695
61.47658718758977,0.0163842998855959
61.50531456478023,0.0207691814784661
61.53404194197069,0.0220234477688828
61.56276931916115,0.0239217388212189
61.59149669635162,0.0255228584735416
61.62022407354208,0.0262727832354966
61.64895145073255,0.0258818574082471
61.677678827923,0.0253176614395848
61.70640620511347,0.0217001634716952
61.73513358230393,0.0152952102178001
61.763860959494394,0.0140927603651213
61.79258833668486,0.0116867272013549
61.82131571387532,0.0079803411154694
61.85004309106578,0.0079263883981399
61.87877046825624,0.0082014135476616
61.907497845446706,0.0076998650906407
61.93622522263717,0.0076524563255544
61.96495259982763,0.0068523290737945
61.9936799770181,0.0069820739946093
62.02240735420855,0.0054927834176479
62.05113473139902,0.0064426101367524
62.07986210858948,0.0060556295107994
62.108589485779945,0.0053679568743931
62.13731686297041,0.0051606830920133
62.16604424016087,0.005153369859008
62.19477161735133,0.0052822263660907
62.22349899454179,0.0053610969544863
62.252226371732256,0.0051319945968037
62.28095374892272,0.0055822877577342
62.30968112611318,0.0057898093596218
62.33840850330365,0.006182095580086
62.367135880494104,0.0062628724143643
62.39586325768457,0.0063199942126735
62.42459063487503,0.0061208762918692
62.453318012065495,0.0058782435193583
62.48204538925596,0.0058931904801931
62.51077276644642,0.0056823948979355
62.53950014363688,0.0059494828376858
62.56822752082734,0.0046811856834897
62.596954898017806,0.0049393189958743
62.62568227520827,0.0052417820803297
62.65440965239873,0.0045336332155615
62.6831370295892,0.0051005426989792
62.711864406779654,0.0051205950319654
62.74059178397012,0.0048528050979532
62.76931916116058,0.0049751955938285
62.798046538351045,0.0050864968742207
62.82677391554151,0.0052522792179527
62.85550129273197,0.0055808599111594
62.88422866992243,0.005637247951999
62.91295604711289,0.0054326278378662
62.94168342430336,0.0053821153828795
62.97041080149382,0.0057102065642597
62.99913817868429,0.0059247750560633
63.02786555587475,0.0058328426061214
63.0565929330652,0.0056412157884738
63.08532031025567,0.0052875025432486
63.11404768744613,0.0052778583770039
63.142775064636595,0.005482889667631
63.17150244182706,0.0055781724371895
63.20022981901752,0.0055566584325468
63.22895719620798,0.0052882285350856
63.25768457339844,0.0052006620274232
63.28641195058891,0.0053225810377439
63.31513932777937,0.00510536626609
63.343866704969834,0.0048817230705845
63.3725940821603,0.0048870536994729
63.401321459350754,0.0048844415623751
63.43004883654122,0.0048151458531148
63.45877621373168,0.0043982408108356
63.487503590922145,0.0044188358500502
63.51623096811261,0.0045175611185499
63.54495834530307,0.0043771309119015
63.57368572249353,0.0043833550057908
63.60241309968399,0.0052497637697046
63.63114047687446,0.0049605093221731
63.65986785406492,0.0047862565795809
63.688595231255384,0.0051002474937062
63.71732260844585,0.0050764399877604
63.746049985636304,0.0047183254311862
63.77477736282677,0.0048993399291616
63.80350474001723,0.0046735406501758
63.832232117207695,0.0044067179487505
63.86095949439816,0.0042423052394565
63.88968687158862,0.0043606939495418
63.91841424877908,0.0039856338748235
63.94714162596954,0.0040621019604107
63.97586900316001,0.0038557775629141
64.00459638035046,0.0041391257118913
64.03332375754093,0.0041193059540791
64.06205113473139,0.0038859718046694
64.09077851192185,0.0046882539997907
64.11950588911232,0.0049364158010129
64.14823326630278,0.004804344475144
64.17696064349325,0.0048081255422405
64.20568802068371,0.0046461921929451
64.23441539787417,0.0044860105601963
64.26314277506464,0.0044151153481827
64.2918701522551,0.0045159348605206
64.32059752944556,0.0043932062939616
64.34932490663601,0.0040124122173974
64.37805228382648,0.0040183445299764
64.40677966101694,0.0043719884999753
64.4355070382074,0.004271082731568
64.46423441539787,0.0045475610006778
64.49296179258833,0.0044473607210817
64.5216891697788,0.0042550486669692
64.55041654696926,0.0046348611278302
64.57914392415972,0.0045089840385454
64.60787130135019,0.0050803069967149
64.63659867854065,0.0037618485813934
64.66532605573111,0.0039174180165566
64.69405343292156,0.0044609143748809
64.72278081011203,0.0042193455147616
64.75150818730249,0.0040925402282581
64.78023556449295,0.0040540566296955
64.80896294168342,0.0036535552045045
64.83769031887388,0.0040556874238234
64.86641769606435,0.0048497971310232
64.89514507325481,0.0051417821378693
64.92387245044527,0.0053053440631505
64.95259982763574,0.0053211375353304
64.9813272048262,0.0057853713619932
65.01005458201665,0.0055856769453547
65.03878195920711,0.0057449067823627
65.06750933639758,0.0049617647023353
65.09623671358804,0.0046718674054017
65.1249640907785,0.0049096026625928
65.15369146796897,0.0046700381124829
65.18241884515943,0.004487229264311
65.2111462223499,0.0045490507487474
65.23987359954036,0.0045462188295014
65.26860097673082,0.0047619294592554
65.29732835392129,0.0045975856555591
65.32605573111175,0.0048373041580004
65.3547831083022,0.0041097685885312
65.38351048549266,0.0042359837240333
65.41223786268313,0.0041787451731237
65.44096523987359,0.0043088404354574
65.46969261706406,0.0035406659814104
65.49841999425452,0.006079996438472
65.52714737144498,0.009736098254814
65.55587474863545,0.0168594069427351
65.58460212582591,0.0204660821928481
65.61332950301637,0.0210831594289976
65.64205688020684,0.0234768547501091
65.6707842573973,0.0221951060810383
65.69951163458775,0.02250249978034
65.72823901177821,0.0231462858736088
65.75696638896868,0.0210584716879367
65.78569376615914,0.0178701213581497
65.8144211433496,0.0104268026163178
65.84314852054007,0.0108068040917381
65.87187589773053,0.0101735379443755
65.900603274921,0.0087060934598874
65.92933065211146,0.0095170594473477
65.95805802930192,0.0075300088824328
65.98678540649239,0.0072664884534585
66.01551278368285,0.0072935743014979
66.0442401608733,0.0074727013411719
66.07296753806376,0.0069315528203233
66.10169491525423,0.0078028321087703
66.13042229244469,0.0059727557152314
66.15914966963516,0.0060673912886367
66.18787704682562,0.0065162557101993
66.21660442401608,0.006404508746121
66.24533180120655,0.0062110750263797
66.27405917839701,0.0058171597684893
66.30278655558747,0.005824698904556
66.33151393277794,0.0057534503987244
66.3602413099684,0.0056543731521894
66.38896868715885,0.0059751227046285
66.41769606434931,0.0056804780536281
66.44642344153978,0.005507976860673
66.47515081873024,0.0054587049632897
66.5038781959207,0.005690269248648
66.53260557311117,0.0057644804612889
66.56133295030163,0.0053666368678313
66.5900603274921,0.0053378243632286
66.61878770468256,0.0051573808346605
66.64751508187302,0.0051036386710472
66.67624245906349,0.0048471859259876
66.70496983625395,0.0050568008438305
66.7336972134444,0.0051289241299746
66.76242459063486,0.0047614665225136
66.79115196782533,0.0046578029467186
66.81987934501579,0.0052850565216388
66.84860672220626,0.0052871567239236
66.87733409939672,0.0056277073935898
66.90606147658718,0.0052438252141073
66.93478885377765,0.0050836733448772
66.96351623096811,0.0053530060108915
66.99224360815857,0.0051859167341199
67.02097098534904,0.0053960207683464
67.0496983625395,0.0049020462194929
67.07842573972995,0.0048125805996603
67.10715311692041,0.0050836565518061
67.13588049411088,0.0049108921909247
67.16460787130134,0.0047769698785097
67.1933352484918,0.0046806475514247
67.22206262568227,0.0045993118081994
67.25079000287273,0.0048128230848219
67.2795173800632,0.0049516642969486
67.30824475725366,0.0046667590357231
67.33697213444412,0.0046031119883288
67.36569951163459,0.0048050180379568
67.39442688882505,0.0047076872605807
67.4231542660155,0.0046172061810197
67.45188164320597,0.0046529686122619
67.48060902039643,0.004519930590549
67.50933639758689,0.0044204111369105
67.53806377477736,0.0046203115120361
67.56679115196782,0.004643181133059
67.59551852915828,0.0048733243197515
67.62424590634875,0.0051170939202012
67.65297328353921,0.0049149043505104
67.68170066072967,0.0051170271356963
67.71042803792014,0.0050902456304875
67.7391554151106,0.0047810596990927
67.76788279230105,0.004659950199372
67.79661016949152,0.0046317631872251
67.82533754668198,0.0044740562714108
67.85406492387244,0.0042320276414205
67.8827923010629,0.0045977228751617
67.91151967825337,0.0050549461361766
67.94024705544383,0.0044482733265904
67.9689744326343,0.0046477508060797
67.99770180982476,0.0052380847091624
68.02642918701522,0.0048682765394934
68.05515656420569,0.0045576908617282
68.08388394139615,0.0049258756981413
68.1126113185866,0.0043744482920113
68.14133869577707,0.0050476399938937
68.17006607296753,0.0050908102405999
68.19879345015799,0.0049255847917154
68.22752082734846,0.0052565604169431
68.25624820453892,0.0052619020776133
68.28497558172938,0.0053534998672742
68.31370295891985,0.0050826786707341
68.34243033611031,0.0052939726106053
68.37115771330078,0.0047806655215132
68.39988509049124,0.0046227356648184
68.4286124676817,0.0044889024164389
68.45733984487215,0.0044221578279333
68.48606722206262,0.0044248351023379
68.51479459925308,0.0043136312991766
68.54352197644354,0.0041495891525631
68.572249353634,0.004233524974736
68.60097673082447,0.0046245017376042
68.62970410801493,0.0046852983385299
68.6584314852054,0.0048138409342034
68.68715886239586,0.0048149017829485
68.71588623958633,0.0047221501213694
68.74461361677679,0.0047193335001625
68.77334099396725,0.0046192838013121
68.8020683711577,0.0044914036984494
68.83079574834817,0.0041701538143336
68.85952312553863,0.0039922709282417
68.8882505027291,0.0043275219066911
68.91697787991956,0.0045131616332168
68.94570525711002,0.0045723272553787
68.97443263430048,0.0047123581627628
69.00316001149095,0.0046978677720719
69.03188738868141,0.0045882432374058
69.06061476587188,0.0048078678047719
69.08934214306234,0.0049280618658798
69.1180695202528,0.0048257158603944
69.14679689744325,0.0040929558073045
69.17552427463372,0.0043288644783522
69.20425165182418,0.0056041048682833
69.23297902901464,0.0049376749607898
69.2617064062051,0.0049765820967418
69.29043378339557,0.0052717594577689
69.31916116058603,0.0048799961589415
69.3478885377765,0.0049353387175993
69.37661591496696,0.0049534352760705
69.40534329215743,0.0043634748930857
69.43407066934789,0.0044824672731195
69.46279804653835,0.0046992726966918
69.4915254237288,0.0049480274307812
69.52025280091927,0.0037006031583855
69.54898017810973,0.0051303111677341
69.5777075553002,0.0101866685182564
69.60643493249066,0.0132711956094271
69.63516230968112,0.0171597985467116
69.66388968687158,0.0183142232001704
69.69261706406205,0.0186438977612172
69.72134444125251,0.0187315405902328
69.75007181844298,0.0188139144544621
69.77879919563344,0.0189584270251363
69.8075265728239,0.0168281976311955
69.83625395001435,0.0131048492221954
69.86498132720482,0.009742216679489
69.89370870439528,0.0081686562637558
69.92243608158574,0.0083205157432108
69.95116345877621,0.0082974698761134
69.97989083596667,0.007501016625551
70.00861821315713,0.0067599877482008
70.0373455903476,0.0069103575622039
70.06607296753806,0.0068878385038213
70.09480034472853,0.0066200584409312
70.12352772191899,0.0061964908817423
70.15225509910945,0.0061030647564985
70.1809824762999,0.0061382914916064
70.20970985349037,0.0057769973428113
70.23843723068083,0.0060012052714546
70.2671646078713,0.0045847909766618
70.29589198506176,0.0049264779146065
70.32461936225222,0.005084606690138
70.35334673944269,0.0049663323475055
70.38207411663315,0.0049054264189198
70.41080149382361,0.0046283079131731
70.43952887101408,0.0045815989476916
70.46825624820454,0.0050961734313479
70.496983625395,0.0055306696131019
70.52571100258545,0.0051392930989408
70.55443837977592,0.0041488655814594
70.58316575696638,0.0067261497354467
70.61189313415684,0.0060964592217222
70.64062051134731,0.0058948397990757
70.66934788853777,0.006486483935617
70.69807526572824,0.0058027863961987
70.7268026429187,0.0056785970785159
70.75553002010916,0.0058618068510222
70.78425739729963,0.0052895409109481
70.81298477449009,0.0045216674822907
70.84171215168054,0.0047783024834588
70.870439528871,0.0049240491355751
70.89916690606147,0.0046422091766031
70.92789428325193,0.0046294711920545
70.9566216604424,0.0051458536384944
70.98534903763286,0.0049245414090611
71.01407641482332,0.0048412079416592
71.04280379201379,0.0049221765549959
71.07153116920425,0.0050226590691968
71.10025854639471,0.0048042125747998
71.12898592358518,0.004511370946747
71.15771330077564,0.0044388233445772
71.18644067796609,0.0043498231080116
71.21516805515655,0.004363499852629
71.24389543234702,0.0042913660949317
71.27262280953748,0.0041080307093951
71.30135018672794,0.0040123026659944
71.33007756391841,0.004088291642407
71.35880494110887,0.0042312773378677
71.38753231829934,0.004127539650898
71.4162596954898,0.0035068810221058
71.44498707268026,0.0042071857535248
71.47371444987073,0.0041789469387927
71.50244182706119,0.0039851513143044
71.53116920425164,0.0041823950521963
71.5598965814421,0.0044754926068877
71.58862395863257,0.0044012640275505
71.61735133582303,0.0046333368773751
71.6460787130135,0.0049074020253552
71.67480609020396,0.0048202368232727
71.70353346739442,0.0043481125745212
71.73226084458489,0.0045682776850364
71.76098822177535,0.0044236956882106
71.78971559896581,0.0041246046387876
71.81844297615628,0.0040704179927932
71.84717035334674,0.0041350019141615
71.87589773053719,0.0042286086509472
71.90462510772765,0.0042569854791291
71.93335248491812,0.0041479193623446
71.96207986210858,0.0041008473461202
71.99080723929904,0.0043147061761466
72.01953461648951,0.0045080212051188
72.04826199367997,0.0041658406888966
72.07698937087044,0.0041620091828594
72.1057167480609,0.0042556745332417
72.13444412525136,0.0041158451006093
72.16317150244183,0.0041180129750613
72.19189887963229,0.0040972117016333
72.22062625682274,0.0039767254028201
72.2493536340132,0.0040653672959868
72.27808101120367,0.0041504431270281
72.30680838839413,0.0041609376296777
72.3355357655846,0.0042458822483034
72.36426314277506,0.004262511221054
72.39299051996552,0.0041815325094109
72.42171789715599,0.0042243382154387
72.45044527434645,0.0041868075302358
72.47917265153691,0.0041802681030971
72.50790002872738,0.0040558704727817
72.53662740591784,0.0039250620673231
72.56535478310829,0.0038925475033992
72.59408216029875,0.0040097319662639
72.62280953748922,0.0040275798380718
72.65153691467968,0.0040335225863393
72.68026429187015,0.0038717903558511
72.70899166906061,0.0038409077894146
72.73771904625107,0.0044185995417651
72.76644642344154,0.0045506954277184
72.795173800632,0.004583104205749
72.82390117782246,0.0046211887383992
72.85262855501293,0.004506632679341
72.88135593220339,0.0042624517365689
72.91008330939384,0.0046220408258437
72.9388106865843,0.0050593917090492
72.96753806377477,0.0047260053978819
72.99626544096523,0.0045708172296902
73.0249928181557,0.0046121235969015
73.05372019534616,0.0042653081567786
73.08244757253662,0.0044814138022088
73.11117494972709,0.004473384136841
73.13990232691755,0.0034449057510844
73.16862970410801,0.0032967022369386
73.19735708129848,0.0052662901147191
73.22608445848894,0.0045741465475145
73.25481183567939,0.0046853913134804
73.28353921286985,0.0051028298320922
73.31226659006032,0.0047059888830829
73.34099396725078,0.0049110618859622
73.36972134444125,0.0049168518124069
73.39844872163171,0.0046711471643406
73.42717609882217,0.0045142735143126
73.45590347601264,0.0043298261975903
73.4846308532031,0.0042736046575141
73.51335823039356,0.0040697231313188
73.54208560758403,0.0035677358512462
73.57081298477449,0.0081203094199282
73.59954036196494,0.0189889659083833
73.6282677391554,0.0180301914499344
73.65699511634587,0.01922186276076
73.68572249353633,0.0201831037356029
73.7144498707268,0.0200435853116965
73.74317724791726,0.0199469123158314
73.77190462510772,0.0200356341254663
73.80063200229819,0.0178130323926655
73.82935937948865,0.018388087202211
73.85808675667911,0.0135087452226002
73.88681413386958,0.0061568327727311
73.91554151106004,0.0087739075844265
73.94426888825049,0.0074393004244056
73.97299626544095,0.0065344040459467
74.00172364263142,0.0073013892950227
74.03045101982188,0.0063580594898998
74.05917839701235,0.0057574219889188
74.08790577420281,0.00581216556987
74.11663315139327,0.0057958472347817
74.14536052858374,0.0055470789120139
74.1740879057742,0.0053080880814861
74.20281528296466,0.0052563519385655
74.23154266015513,0.0048580859875268
74.26027003734559,0.0048555687922249
74.28899741453604,0.0049369543649777
74.3177247917265,0.0048068258206611
74.34645216891697,0.0046076700040077
74.37517954610743,0.004585839159957
74.4039069232979,0.0045622922935322
74.43263430048836,0.004736928823868
74.46136167767882,0.004655100202351
74.49008905486929,0.0047122683100155
74.51881643205975,0.0049584468946276
74.54754380925021,0.0047878993507045
74.57627118644068,0.0048501026692494
74.60499856363114,0.0049300046923602
74.63372594082159,0.0047262094957641
74.66245331801206,0.0046972618899427
74.69118069520252,0.0046420405683922
74.71990807239298,0.0048360684243594
74.74863544958345,0.0048861192102982
74.77736282677391,0.0049231533028809
74.80609020396437,0.0054255145462898
74.83481758115484,0.0053273639051457
74.8635449583453,0.0058106688549189
74.89227233553576,0.0047684991853018
74.92099971272623,0.0058364283817966
74.94972708991669,0.0056057513099108
74.97845446710714,0.0054341411331097
75.0071818442976,0.0053861004002403
75.03590922148807,0.0052733126071963
75.06463659867853,0.0050481003867207
75.093363975869,0.0048876364791071
75.12209135305946,0.0044425821252365
75.15081873024992,0.0043266520383887
75.17954610744039,0.0048575793255499
75.20827348463085,0.0048489715255791
75.23700086182131,0.0047505468620875
75.26572823901178,0.004767497263866
75.29445561620224,0.0045568039577349
75.32318299339269,0.0043674011880687
75.35191037058316,0.0060220614449345
75.38063774777362,0.0041422483705673
75.40936512496408,0.0033326342268928
75.43809250215455,0.0050421185871911
75.46681987934501,0.0047149381967625
75.49554725653547,0.0051594943378523
75.52427463372594,0.0049098598170228
75.5530020109164,0.0047900856204315
75.58172938810687,0.0044723162263505
75.61045676529733,0.0045078196525516
75.63918414248779,0.0044674051011526
75.66791151967824,0.0043708896732449
75.6966388968687,0.0044044358591379
75.72536627405917,0.0045025462095884
75.75409365124963,0.0045209158967304
75.7828210284401,0.0045014661290668
75.81154840563056,0.0049684012112828
75.84027578282102,0.0050110620731965
75.86900316001149,0.0048881378385582
75.89773053720195,0.0050094171825541
75.92645791439242,0.005076261755754
75.95518529158288,0.0042058700143169
75.98391266877334,0.0047493567398066
76.01264004596379,0.0047283643920928
76.04136742315426,0.004284196953659
76.07009480034472,0.0041327394181084
76.09882217753518,0.0029344992509856
76.12754955472565,0.0062036558461886
76.15627693191611,0.0051834919011623
76.18500430910657,0.0043603723109957
76.21373168629704,0.0048031606287349
76.2424590634875,0.0047133730970957
76.27118644067797,0.0045295646441544
76.29991381786843,0.0046361430792822
76.32864119505889,0.0044057748362586
76.35736857224934,0.0041049267554114
76.3860959494398,0.0040785326446146
76.41482332663027,0.0044625129917632
76.44355070382073,0.0044363557091105
76.4722780810112,0.004431289040308
76.50100545820166,0.0045717690438608
76.52973283539212,0.0044930424143053
76.55846021258259,0.0042818607058416
76.58718758977305,0.0046029430202169
76.61591496696352,0.004915660392441
76.64464234415398,0.0034554024210212
76.67336972134443,0.0042557291497971
76.70209709853489,0.0043787220510025
76.73082447572536,0.0044870601949378
76.75955185291582,0.0046178747993988
76.78827923010628,0.004654572831728
76.81700660729675,0.0049575771904896
76.84573398448721,0.00504837963071
76.87446136167767,0.004951541198788
76.90318873886814,0.0047389895231934
76.9319161160586,0.0044662503192103
76.96064349324907,0.0041897853463319
76.98937087043953,0.0039511498944732
77.01809824762998,0.003806033071073
77.04682562482044,0.0037625784664892
77.0755530020109,0.0038436142766683
77.10428037920137,0.0037405271859894
77.13300775639183,0.0034354390623202
77.1617351335823,0.0042135700158085
77.19046251077276,0.0042008722638869
77.21918988796322,0.0038542539052015
77.24791726515369,0.0050943775600226
77.27664464234415,0.0045235681129964
77.30537201953462,0.0022297940939838
77.33409939672508,0.0047475332787861
77.36282677391553,0.0043575684727525
77.39155415110599,0.0031835103081741
77.42028152829646,0.0041555224908424
77.44900890548692,0.0039095377854887
77.47773628267738,0.0047146549732409
77.50646365986785,0.0042354541237357
77.53519103705831,0.0108099771063441
77.56391841424877,0.0074711041027175
77.59264579143924,0.01940323276853295
77.6213731686297,0.01825499539069914
77.65010054582017,0.0227107919239197
77.67882792301063,0.0257635626748792
77.70755530020108,0.0233713037678014
77.73628267739154,0.0239687100846926
77.765010054582,0.0249053449635786
77.79373743177247,0.0247845641015277
77.82246480896293,0.0204951483651035
77.8511921861534,0.0129836972271941
77.87991956334386,0.0124507350929696
77.90864694053433,0.0129423030747122
77.93737431772479,0.0083554088526353
77.96610169491525,0.0104829480298238
77.99482907210572,0.0024291198953939
78.02355644929618,0.0068928868091409
78.05228382648663,0.0055420293423906
78.0810112036771,0.0054172557872154
78.10973858086756,0.0053114539186082
78.13846595805802,0.0067078053911054
78.16719333524848,0.0062465140413207
78.19592071243895,0.0060104113146621
78.22464808962941,0.0059508838650042
78.25337546681988,0.0058624756923842
78.28210284401034,0.0058796505011493
78.3108302212008,0.0056660896014833
78.33955759839127,0.0056305222396765
78.36828497558173,0.0053751372455153
78.39701235277218,0.0049315408846964
78.42573972996264,0.0049142863977534
78.4544671071531,0.0045125792756654
78.48319448434357,0.0044992502514363
78.51192186153403,0.0050220212168053
78.5406492387245,0.0049770734776703
78.56937661591496,0.0048886582082023
78.59810399310543,0.004920409767546
78.62683137029589,0.0052394193358193
78.65555874748635,0.005276964842177
78.68428612467682,0.00518914087645
78.71301350186728,0.0051300154284161
78.74174087905773,0.0057166666243143
78.7704682562482,0.0049752914710819
78.79919563343866,0.0049028588401719
78.82792301062912,0.004092117161211
78.85665038781958,0.0043365282354307
78.88537776501005,0.0036451678470285
78.91410514220051,0.0040583286517222
78.94283251939098,0.003961342535991
78.97155989658144,0.0039853367049901
79.0002872737719,0.0040805396927938
79.02901465096237,0.0044895300953798
79.05774202815283,0.0045307421713221
79.08646940534328,0.004556555181575
79.11519678253374,0.0050752535271677
79.14392415972421,0.0053762077828739
79.17265153691467,0.0050648594210229
79.20137891410513,0.0052549728602964
79.2301062912956,0.0052271101508556
79.25883366848606,0.0052802507631282
79.28756104567653,0.005379546541206
79.31628842286699,0.0050221912414288
79.34501580005745,0.0048360453211357
79.37374317724792,0.0045855149902101
79.40247055443838,0.0046675080207958
79.43119793162883,0.004788380983258
79.4599253088193,0.0049279802949586
79.48865268600976,0.0046533173812784
79.51738006320022,0.0050334922656206
79.54610744039068,0.0048308601643052
79.57483481758115,0.00473955979021
79.60356219477161,0.004703703683322
79.63228957196208,0.0045747190522342
79.66101694915254,0.0045280258123533
79.689744326343,0.004657626178652
79.71847170353347,0.0045920024925869
79.74719908072393,0.0046124764778556
79.77592645791438,0.0045122979304747
79.80465383510484,0.004706661726561
79.83338121229531,0.0040946710769946
79.86210858948577,0.0045928524554832
79.89083596667624,0.004829051647238
79.9195633438667,0.0044574980611256
79.94829072105716,0.0044713100450535
79.97701809824763,0.0050177449157758
80.00574547543809,0.0048561688943665
80.03447285262855,0.0051291119607206
80.06320022981902,0.0053749756986514
80.09192760700948,0.0051371851769598
80.12065498419993,0.0049415130488214
80.1493823613904,0.0052303952838548
80.17810973858086,0.0051417920238094
80.20683711577132,0.0049669918469741
80.23556449296179,0.0047979704967708
80.26429187015225,0.0044469647612202
80.29301924734271,0.0044074504044396
80.32174662453318,0.0045075132463552
80.35047400172364,0.0043989804412498
80.3792013789141,0.0044787958189267
80.40792875610457,0.0045590025979917
80.43665613329503,0.0040690048390215
80.46538351048548,0.0046653956102907
80.49411088767594,0.0052473594544775
80.52283826486641,0.0051061039220298
80.55156564205687,0.0051585265107105
80.58029301924734,0.004989467278088
80.6090203964378,0.0049613814827936
80.63774777362826,0.0047836926029598
80.66647515081873,0.0048377561097849
80.69520252800919,0.0047333532454367
80.72392990519965,0.0042997661972326
80.75265728239012,0.0047652612961654
80.78138465958058,0.0046454405894929
80.81011203677103,0.0047805294052372
80.8388394139615,0.0045984603015557
80.86756679115196,0.0041833028083979
80.89629416834242,0.0053060297014958
80.92502154553289,0.0049505309575939
80.95374892272335,0.0049609248822364
80.98247629991381,0.0049522040902779
81.01120367710428,0.0048514759178436
81.03993105429474,0.0049372146598816
81.0686584314852,0.0050256606702309
81.09738580867567,0.0048667535043097
81.12611318586613,0.00484548705455
81.15484056305658,0.0050345281520214
81.18356794024704,0.004682995807814
81.21229531743751,0.0047133979188288
81.24102269462797,0.0048713553076533
81.26975007181844,0.0047372435124371
81.2984774490089,0.0048174937763378
81.32720482619936,0.0047140212434857
81.35593220338983,0.004720504101393
81.38465958058029,0.0046062268750536
81.41338695777075,0.0046184503591107
81.44211433496122,0.0044977305604916
81.47084171215168,0.0045994676595087
81.49956908934213,0.0046665617507778
81.5282964665326,0.0044428732093015
81.55702384372306,0.004260850255315
81.58575122091352,0.0047807588284084
81.61447859810399,0.0090341871641319
81.64320597529445,0.01155089507880365
81.67193335248491,0.0044118273905756
81.70066072967538,0.0258581261431667
81.72938810686584,0.0209596206912243
81.7581154840563,0.0216987468238479
81.78684286124677,0.0199434946684478
81.81557023843723,0.0213028982016898
81.84429761562768,0.0220377972324375
81.87302499281815,0.0220957490410887
81.90175237000861,0.0186195136491614
81.93047974719907,0.0142681177158342
81.95920712438954,0.0115168612570622
81.98793450158,0.0092817289937157
82.01666187877046,0.01123039265854
82.04538925596093,0.0120384605711914
82.07411663315139,0.0048427325798183
82.10284401034185,0.0073864552044947
82.13157138753232,0.0068150310950311
82.16029876472278,0.006822100157077
82.18902614191323,0.0058912151462331
82.2177535191037,0.0057622606080937
82.24648089629416,0.0058957073417745
82.27520827348462,0.0055752613682365
82.30393565067509,0.0059022811690576
82.33266302786555,0.0060686634465107
82.36139040505601,0.0055718996906056
82.39011778224648,0.005741434785541
82.41884515943694,0.0057501072738796
82.4475725366274,0.0057857879648073
82.47629991381787,0.0057811388656877
82.50502729100832,0.0072845298485587
82.53375466819878,0.0034181366043511
82.56248204538925,0.0049166383708847
82.59120942257971,0.0047697234238573
82.61993679977017,0.0049040258192348
82.64866417696064,0.004801731815057
82.6773915541511,0.0051257241386035
82.70611893134156,0.0047853248486484
82.73484630853203,0.0050334512368119
82.76357368572249,0.0048818165277621
82.79230106291295,0.0049124902231105
82.82102844010342,0.0048509073299731
82.84975581729387,0.0050782994084361
82.87848319448433,0.0052423693792163
82.9072105716748,0.0044876731451293
82.93593794886526,0.0053416878477515
82.96466532605572,0.0051901170980549
82.99339270324619,0.0050839679547069
83.02212008043665,0.004856664932111
83.05084745762711,0.004953550151475
83.07957483481758,0.0047845342734228
83.10830221200804,0.00478727547851
83.1370295891985,0.004799595725496
83.16575696638897,0.0044224003644961
83.19448434357942,0.0045380299242586
83.22321172076988,0.0046771934463482
83.25193909796035,0.0044275606518934
83.28066647515081,0.0041637157372859
83.30939385234127,0.0044669487926686
83.33812122953174,0.0047055929535746
83.3668486067222,0.0047858422301924
83.39557598391266,0.0047450477563141
83.42430336110313,0.0046082035665436
83.45303073829359,0.0046407029644297
83.48175811548406,0.0046268516808867
83.51048549267452,0.0046911189346747
83.53921286986497,0.0048522766008489
83.56794024705543,0.0044882218170019
83.5966676242459,0.0042341942306771
83.62539500143636,0.0042313158325921
83.65412237862682,0.0044981458797387
83.68284975581729,0.0047283815724205
83.71157713300775,0.0049345643330892
83.74030451019821,0.0049225770405064
83.76903188738868,0.0048762146224075
83.79775926457914,0.0048746978407517
83.8264866417696,0.004795358570821
83.85521401896007,0.0052830514678388
83.88394139615052,0.004204065723692
83.91266877334098,0.0042813793264333
83.94139615053145,0.0042437355318171
83.97012352772191,0.0043219311128292
83.99885090491237,0.0041578006279085
84.02757828210284,0.0044054381524834
84.0563056592933,0.0046342121289977
84.08503303648376,0.0042700367763949
84.11376041367423,0.0051711248336837
84.14248779086469,0.0049704159170439
84.17121516805516,0.004664216955404
84.19994254524562,0.0049336594033616
84.22866992243607,0.0050716627611342
84.25739729962653,0.0048226040673773
84.286124676817,0.0046035152445643
84.31485205400746,0.004450177177283
84.34357943119792,0.0044067549007914
84.37230680838839,0.0044698866989883
84.40103418557885,0.004332384112984
84.42976156276931,0.0044085807572356
84.45848893995978,0.0038697711991383
84.48721631715024,0.0046708825925716
84.5159436943407,0.004709019496586
84.54467107153117,0.0044388886547579
84.57339844872162,0.0044721662196096
84.60212582591208,0.0044532306236184
84.63085320310255,0.0043501391954111
84.65958058029301,0.0043978828761891
84.68830795748347,0.0047146668115755
84.71703533467394,0.0047411350062736
84.7457627118644,0.0045816255206006
84.77449008905486,0.0045488070716865
84.80321746624533,0.0045868356872153
84.83194484343579,0.0045630960663381
84.86067222062626,0.0044945972975047
84.88939959781672,0.0047166271561781
84.91812697500717,0.0045874995085817
84.94685435219763,0.0045933097263153
84.9755817293881,0.0047746753864452
85.00430910657856,0.004454457040767
85.03303648376902,0.0047192363242175
85.06176386095949,0.0051899977792015
85.09049123814995,0.0044593860743915
85.11921861534042,0.0045966651127591
85.14794599253088,0.005184630527853
85.17667336972134,0.0049871749751504
85.2054007469118,0.0048259364495076
85.23412812410227,0.0048960962485982
85.26285550129272,0.0051593721997974
85.29158287848318,0.0058299657304378
85.32031025567365,0.0055231428727685
85.34903763286411,0.0049925628732749
85.37776501005457,0.005205675078876
85.40649238724504,0.0051086220965239
85.4352197644355,0.0056048445621987
85.46394714162597,0.0046194921005176
85.49267451881643,0.0045435776120259
85.52140189600689,0.0043458256720717
85.55012927319736,0.0043808153128148
85.57885665038782,0.0043033430464227
85.60758402757827,0.0040280220346739
85.63631140476873,0.0040353098376043
85.6650387819592,0.0038323955558065
85.69376615914966,0.0046752953408278
85.72249353634012,0.0130416965538635
85.75122091353059,0.0133029531578215
85.77994829072105,0.0170465861810779
85.80867566791152,0.0247052846556158
85.83740304510198,0.0222550258784807
85.86613042229244,0.0223286934317654
85.8948577994829,0.0214262895811431
85.92358517667337,0.0218947693749736
85.95231255386382,0.0230682957351469
85.98103993105428,0.0160013592858451
86.00976730824475,0.0113891252996266
86.03849468543521,0.0089770748326564
86.06722206262567,0.0072241416169462
86.09594943981614,0.007083608890727
86.1246768170066,0.0069704406647307
86.15340419419707,0.0061358687915793
86.18213157138753,0.0061566856256357
86.210858948578,0.0062052234555734
86.23958632576846,0.0056051642213374
86.26831370295892,0.0052176008247404
86.29704108014937,0.0056826522333274
86.32576845733983,0.0055988725251833
86.3544958345303,0.0052911195810261
86.38322321172076,0.0056722179396214
86.41195058891122,0.0060137926735444
86.44067796610169,0.0056187868831702
86.46940534329215,0.0059583971944681
86.49813272048262,0.0056832944678491
86.52686009767308,0.0051719137683604
86.55558747486354,0.0050285421076808
86.584314852054,0.0051658691242324
86.61304222924447,0.0050395419643723
86.64176960643492,0.0048550090925207
86.67049698362538,0.0047855278062419
86.69922436081585,0.0045101168625757
86.72795173800631,0.0045095848664328
86.75667911519677,0.0044983795224955
86.78540649238724,0.0058418828838737
86.8141338695777,0.0054079069484769
86.84286124676817,0.0053503281135568
86.87158862395863,0.0052681333682046
86.9003160011491,0.0052041462140239
86.92904337833956,0.0054532032487995
86.95777075553002,0.0054977336491321
86.98649813272047,0.0047810391242192
87.01522550991093,0.0047195307738452
87.0439528871014,0.0044057570098864
87.07268026429186,0.0041872339048264
87.10140764148233,0.0043000269141524
87.13013501867279,0.0045221012003839
87.15886239586325,0.0040972414940785
87.18758977305372,0.0044854994353608
87.21631715024418,0.0047960438445596
87.24504452743464,0.0046731271778514
87.27377190462511,0.0046866538133246
87.30249928181557,0.0047789874415797
87.33122665900602,0.0047797402212306
87.35995403619648,0.0051347703187678
87.38868141338695,0.0051988917490778
87.41740879057741,0.0049360373207611
87.44613616776788,0.0048986035986685
87.47486354495834,0.0048606314052755
87.5035909221488,0.0048284708310117
87.53231829933927,0.0049345521325197
87.56104567652973,0.0050720306838938
87.5897730537202,0.0052090852855986
87.61850043091066,0.0040547505397248
87.64722780810112,0.0044629991276778
87.67595518529157,0.0046556165914227
87.70468256248203,0.0047492872734067
87.7334099396725,0.0045899322827565
87.76213731686296,0.0044724351158662
87.79086469405343,0.0043494380185799
87.81959207124389,0.0042594163686277
87.84831944843435,0.0043568302155393
87.87704682562482,0.0045080239026667
87.90577420281528,0.004377223681662
87.93450158000574,0.0043240952995439
87.96322895719621,0.0043187686244038
87.99195633438667,0.0045127106512599
88.02068371157712,0.004668303919082
88.04941108876758,0.0044648829765447
88.07813846595805,0.0043120856704405
88.10686584314851,0.0043073384147621
88.13559322033898,0.0044809940209751
88.16432059752944,0.0045333630755464
88.1930479747199,0.0042386755738846
88.22177535191037,0.0041123773961036
88.25050272910083,0.0042369971083717
88.2792301062913,0.0037019613130007
88.30795748348176,0.0038320266956798
88.33668486067221,0.00408780795189
88.36541223786267,0.003915002676789
88.39413961505313,0.0039069335272392
88.4228669922436,0.0037637130718717
88.45159436943406,0.0039363419169405
88.48032174662453,0.0046205028043221
88.50904912381499,0.0046986824086846
88.53777650100545,0.0048258793273727
88.56650387819592,0.0047761336455142
88.59523125538638,0.0047557079435148
88.62395863257684,0.0047548996378013
88.65268600976731,0.004778719354285
88.68141338695776,0.0051994399770166
88.71014076414822,0.0048868701917961
88.73886814133868,0.0047538177976971
88.76759551852915,0.00472742324258
88.79632289571961,0.0046372674930028
88.82505027291008,0.0048150179160129
88.85377765010054,0.005337025232502
88.882505027291,0.0050411311555035
88.91123240448147,0.0051785992460745
88.93995978167193,0.0050951539816965
88.9686871588624,0.0047649753166545
88.99741453605286,0.0048732813196668
89.02614191324331,0.0049608412352193
89.05486929043377,0.0045048449359822
89.08359666762424,0.0045898813395384
89.1123240448147,0.0044115030240339
89.14105142200516,0.0043213999874913
89.16977879919563,0.0046405118194836
89.19850617638609,0.0049545346995328
89.22723355357655,0.0048699525506777
89.25596093076702,0.0048123440096263
89.28468830795748,0.0050901816097046
89.31341568514794,0.0052380488193294
89.34214306233841,0.0051397008920312
89.37087043952886,0.0049692604949399
89.39959781671932,0.0049782468350604
89.42832519390979,0.0050623970117741
89.45705257110025,0.0048243082097056
89.48577994829071,0.0049874731918927
89.51450732548118,0.0048654048594041
89.54323470267164,0.0046694935489022
89.5719620798621,0.0049053374084904
89.60068945705257,0.0054705741051601
89.62941683424303,0.0050680400990845
89.6581442114335,0.0051244395529987
89.68687158862396,0.0029562793507968
89.71559896581441,0.0112161650437877
89.74432634300487,0.0219157794778753
89.77305372019534,0.0250389553593655
89.8017810973858,0.0248291053314865
89.83050847457626,0.0249809292978278
89.85923585176673,0.024951513409515
89.88796322895719,0.0249997977831416
89.91669060614765,0.0262990963871519
89.94541798333812,0.0228933470046956
89.97414536052858,0.0140186074121503
90.00287273771904,0.0049235481628296
90.03160011490951,0.0053137480455369
90.06032749209996,0.0080620488122549
90.08905486929042,0.0075446545331412
90.11778224648089,0.0065237218457059
90.14650962367136,0.0061764323907958
90.1752370008618,0.0061178886299574
90.20396437805228,0.0056427257565306
90.23269175524274,0.0058284495210242
90.2614191324332,0.0057622859300182
90.29014650962368,0.0052203735816836
90.31887388681412,0.0052899965833239
90.3476012640046,0.0055305149556409
90.37632864119506,0.0053971754205428
90.40505601838552,0.0052509167030617
90.43378339557596,0.005259090129842
90.46251077276644,0.005222928405716
90.4912381499569,0.0052606706715926
90.51996552714736,0.0049862397206449
90.54869290433784,0.0048227088853498
90.57742028152828,0.004944576353016
90.60614765871875,0.0050236843530987
90.63487503590922,0.005096327150617
90.66360241309968,0.0048479250041209
90.69232979029016,0.0051895795583836
90.7210571674806,0.0047934036168496
90.74978454467106,0.0047072772539107
90.77851192186152,0.0047571743229023
90.807239299052,0.004595230086124
90.83596667624244,0.0049267081624916
90.86469405343291,0.0058944555256824
90.89342143062338,0.0057561415249797
90.92214880781384,0.0056256372439835
90.9508761850043,0.0057747219853357
90.97960356219475,0.005656492690448
91.00833093938525,0.0053645690284468
91.0370583165757,0.0055569013121792
91.06578569376616,0.0051727658744662
91.0945130709566,0.0043484247968568
91.12324044814709,0.0045765056546641
91.15196782533754,0.0048815284989999
91.180695202528,0.0052809937672003
91.20942257971846,0.0048299702329456
91.23814995690891,0.0047184553087245
91.2668773340994,0.0049390695354569
91.29560471128984,0.0049466442937952
91.32433208848032,0.0049496220917312
91.35305946567078,0.0051330056477395
91.38178684286125,0.0047368958993568
91.41051422005172,0.0040349797719642
91.43924159724216,0.0044427947677626
91.46796897443262,0.0047144717313104
91.49669635162309,0.0045039230371794
91.52542372881356,0.0050234981595317
91.554151106004,0.0051038001742102
91.58287848319448,0.004954330667409
91.61160586038494,0.0052125829228945
91.6403332375754,0.0052891222876457
91.66906061476588,0.0053527773188438
91.69778799195632,0.0054281262478522
91.7265153691468,0.0051472430769854
91.75524274633726,0.0048069685491702
91.78397012352772,0.0053137316619293
91.81269750071816,0.005105108661388
91.84142487790864,0.0051525867791599
91.8701522550991,0.0052909670936801
91.89887963228956,0.0053304982190838
91.92760700948004,0.0053588306105882
91.95633438667048,0.0052672091317326
91.98506176386095,0.0050803157235442
92.01378914105142,0.0053783252276609
92.04251651824188,0.0046878286408062
92.07124389543236,0.0044187027528182
92.0999712726228,0.0047086312084618
92.12869864981326,0.004699494056153
92.15742602700372,0.0047966731575974
92.1861534041942,0.0047106747668595
92.21488078138464,0.0049935081612217
92.24360815857511,0.0041154516837467
92.27233553576558,0.0048891684903991
92.30106291295604,0.0050163326893157
92.3297902901465,0.0041976144106081
92.35851766733695,0.0045859725977609
92.38724504452745,0.0050663527608498
92.4159724217179,0.0045814033507793
92.44469979890836,0.0049921140073318
92.4734271760988,0.0049952936404549
92.50215455328927,0.0045997235415137
92.53088193047974,0.0046690067611418
92.5596093076702,0.0045978761674604
92.58833668486066,0.0042961052885337
92.61706406205111,0.0045041992615716
92.6457914392416,0.0046412728152199
92.67451881643206,0.0044170869552325
92.70324619362252,0.004769154856286
92.73197357081298,0.0048662406202826
92.76070094800345,0.0049779455522603
92.78942832519392,0.0047341307145971
92.81815570238436,0.0048966596879526
92.84688307957482,0.004846839071046
92.87561045676529,0.0046279247217953
92.90433783395576,0.0044631651267083
92.9330652111462,0.0042826747427248
92.96179258833668,0.0042503612649748
