timestamp,rms
0.0,0.0025458917815799
0.043775081634521484,0.0025573967744009
0.09294319152832031,0.0025691134427199
0.1338665485381938,0.0026848114388471
0.1376953125,0.0026802533423235
0.1759200096130371,0.0026067154630587
0.22074627876280317,0.0026991285252981
0.22175335884091396,0.0026610748982752
0.26294636726377973,0.0026664055147014
0.2685136795043803,0.002689194191115
0.31081438064573774,0.0026613289792654
0.3658342361449911,0.0024407842247108
0.39968585968016157,0.0024362090067175
0.41153740882872114,0.0023652334491999
0.4521656036376811,0.0024555603922005
0.496826171875,0.0024280307924896
0.5407395362854004,0.0024479072519242
0.5438222885131552,0.0024917783725789
0.5896124839782573,0.0025489442250593
0.627533435821519,0.0025726421302498
0.6304855346679545,0.0026283711946388
0.6709306240081503,0.0026353506803144
0.6746349334716797,0.0025870136903413
0.7173287868499614,0.0025955159373487
0.7680037021636821,0.0026187494080119
0.80819988250731,0.0026271703984423
0.8109490871429159,0.0026984395326831
0.8559083938598349,0.0025811262264644
0.8964905738830424,0.0025367346254869
0.8982951641082622,0.0025295721501076
0.9466993808746196,0.0024636700932447
0.9912867546081401,0.0024729155230123
1.0418162345885946,0.0024390752991185
1.088322877883897,0.00247138841978
1.092473268508897,0.0024417766996256
1.1273472309112407,0.0024770590214225
1.1343798637389995,0.0024658875876649
1.176298141479478,0.0025295275993076
1.219705820083604,0.0026118550019785
1.2233402729034424,0.0025132138074775
1.267294406890855,0.0024965677386818
1.269939661026001,0.0025504469840533
1.3129105567931987,0.0025440541278545
1.3587753772735596,0.0025852052676627
1.4007284641265727,0.0025893214056777
1.4038140773773193,0.0025743061655725
1.450501203536973,0.0026665534352652
1.491088628768921,0.002597664265186
1.4959096908569194,0.002614291665737
1.53730726242064,0.0026690246082021
1.53803968429564,0.0025665680273413
1.5801515579223633,0.0025686089487774
1.6255929470061972,0.0025303739303792
1.6263945102691508,0.0024360933596762
1.6672892570495605,0.002423222231009
1.6750793457031108,0.0023996219651262
1.7195398807525635,0.002406211221145
1.7597315311431743,0.0024481834562938
1.761866569519043,0.0023800761938141
1.8055536746978618,0.0024379430540333
1.8122062683105327,0.0024430916844565
1.8536593914031982,0.0024113107674795
1.9005138874053813,0.0024321580884167
1.9009678363799907,0.0024346357362875
1.944869279861436,0.0024030478193804
1.9466972351073935,0.0024414305332683
1.9899106025695517,0.0024764220113771
1.9974594116210795,0.0024237802342935
2.0407178401946737,0.0025744812646181
2.0893685817718364,0.002558476156187
2.129233360290513,0.0026245095374361
2.1321735382079936,0.002986679036662
2.177159786224351,0.0029351452689023
2.220921754837022,0.0029694233822104
2.2212235927581503,0.002877231716907
2.2629883289337016,0.0029253382846324
2.2660932540893413,0.0028415443824542
2.3072316646575786,0.0028936352341144
2.3570177555083944,0.0027330474969463
2.3959286212921,0.0024602599458643
2.3998928070068217,0.0024858466905153
2.4470191001891948,0.0025618875326067
2.4904382228851176,0.0025361348222121
2.538147926330552,0.0025172685912077
2.5470385551452353,0.0025402195643356
2.584454536437974,0.0024431839375174
2.5948383808135986,0.0024689476543793
2.6253921985625936,0.0024931573876835
2.636049747467041,0.0024908284429654
2.673131942748995,0.0025080069291987
2.7123527526855327,0.0024581978335494
2.762329578399644,0.0025450063309726
2.7681884765624716,0.0024996353305698
2.806151866912842,0.0025464450318595
2.8097782135009624,0.0025016182385106
2.8519971370696737,0.0025165745891372
2.901426553726182,0.0025088829789895
2.941838264465318,0.002493518970309
2.9446127414703227,0.002474122862329
2.9857697486877157,0.0024673267484567
3.0333108901977397,0.002492456672075
3.035525560379014,0.002506681041166
3.0755610466003276,0.0025556114905429
3.081391334533677,0.0024635328630901
3.1232156753539897,0.0025075575541742
3.1736445426940776,0.0025068159092692
3.2084856033325053,0.0026134293896557
3.2155003547668315,0.0026254540226027
3.2573328018188334,0.0025896913196173
3.3059892654418803,0.0025794665908234
3.3079454898834086,0.0025705386511693
3.349011659622178,0.0025222999804094
3.351253032684312,0.002528614134929
3.3924171924590922,0.0025017984249363
3.4001100063323833,0.0024548718980071
3.450545310974107,0.0025197967224485
3.492272615432725,0.0025388217240255
3.5324351787566997,0.0025756409951337
3.537941217422471,0.0025695739811197
3.5827207565307475,0.0026065209118888
3.6278004646301127,0.0025900829356167
3.6721796989440776,0.0025706263304957
3.713419198989854,0.002520199199455
3.758001089096055,0.0025019560774139
3.7604689598083354,0.0025344901892905
3.801373720169053,0.002487659391154
3.8087227344512797,0.0024751702643552
3.8547644615173198,0.0024435529149321
3.8969626426696635,0.0024587249823214
3.8996627330779887,0.0024417536233952
3.941125154495225,0.0023979307007565
3.943109035491929,0.0023843573990795
3.983328104019151,0.0023926613442375
4.028241872787461,0.0024263361073688
4.030852079391465,0.0023995984835062
4.072663068771348,0.0024732117173978
4.073385953903184,0.002453241691968
4.119590282440143,0.0025405966275728
4.172955274581895,0.0025030368554815
4.214916229248033,0.0025575730311139
4.218246459960923,0.002507782251752
4.255073785781846,0.0025742623889501
4.2948319911956645,0.0025729925429092
4.299046754837022,0.0025673363064552
4.341202735900865,0.0024640588705121
4.347829103469834,0.0025003340343687
4.3891923427581645,0.0025235060211118
4.43092036247252,0.0024415228490959
4.433367252349839,0.0025726202278738
4.4790737628936625,0.0024214776419697
4.485924482345567,0.0024170057559297
4.527841091155992,0.0024331772396927
4.568081378936753,0.0024140432376879
4.573883771896348,0.0024164928238758
4.615471601486192,0.0024500930173635
4.616917371749864,0.0024466409162642
4.661069393157945,0.002450897807989
4.704810142517076,0.0025143569772604
4.70566344261168,0.0025213392020781
4.74929833412169,0.002567446041847
4.750307083129869,0.0025558981015903
4.792545080184922,0.0025606775644037
4.835223674774156,0.0025447849201817
4.839837074279771,0.0025366457746918
4.880456686019883,0.0025144466156554
4.884787082672105,0.0025304184662786
4.927161455154405,0.0024645847656703
4.976199150085435,0.0025436111212291
4.981854677200303,0.0026098047190642
5.020917177200303,0.0026260119678016
5.0219626426696635,0.0026672929150351
5.064411401748643,0.0026929003215546
5.115521192550645,0.0029028894157597
5.157947778701768,0.0029344924896066
5.15854167938231,0.0028754490513566
5.2004833221435405,0.0028229228450214
5.247297763824449,0.0027055298356445
5.257630348205552,0.0026177594546317
5.292903184890733,0.0026630433918731
5.295717954635606,0.0026125668289808
5.339735746383653,0.0083561212121039
5.348431825637803,0.0105823801613664
5.389178752899156,0.0107724486822406
5.4322526454925395,0.0108203176997796
5.438538074493394,0.0108461213081902
5.476126670837388,0.0108456225666763
5.483023881912217,0.0108439703215721
5.529903173446641,0.0108596253687269
5.5700933933257915,0.0108728950027327
5.574800729751573,0.0038749406877792
5.614260196685777,0.0030388593996934
5.618416070938096,0.002681724542525
5.666019439697251,0.0026324198378596
5.709861278533921,0.0025994640202716
5.710441112518296,0.0025639321797767
5.751588821411119,0.0025442091619495
5.755407810211167,0.0024660703847954
5.797439336776719,0.0024934059813712
5.810407400131183,0.0025812572048841
5.847926139831529,0.0025557658235623
5.900876283645616,0.0027031754159471
5.941376686096177,0.0027982436860633
5.943630933761611,0.0027948385516978
5.985495090484605,0.0028049210254201
6.029557943344102,0.002774401219131
6.072851181030259,0.002845725355645
6.07612299919127,0.0028000553814077
6.115078210830674,0.002658151221297
6.165338277816758,0.0028025294710026
6.1694903373717835,0.0027386701039095
6.210944175720201,0.0027595150294358
6.215101957321153,0.0028103196441765
6.259214401245103,0.0027800820665033
6.297168970108018,0.0028215652097622
6.304209947586045,0.0028147071557292
6.343595266342149,0.0028034340801982
6.347711086273179,0.0028370196273823
6.388610363006578,0.0027686680129616
6.397063016891465,0.0027412612636061
6.441957473754869,0.0026877061150936
6.483567953109727,0.0026913096139353
6.487183094024644,0.0027271653747864
6.5300779342651225,0.0027330887302658
6.534095287322984,0.0027271447134252
6.580505609512315,0.0026578332365337
6.625295400619493,0.0027410351488389
6.663493156433091,0.0027640443462729
6.670042991638169,0.0028040771802996
6.7124180793762065,0.0028618960065331
6.763029813766465,0.0028037355517374
6.763735294342027,0.0028583301478355
6.814032077789292,0.002814506961762
6.852480888366685,0.002810600329295
6.8579282760619975,0.0028195475155433
6.900269269943223,0.0028595521029009
6.947533369064317,0.0027777502672793
6.989373207092271,0.0027145534914268
6.990542173385606,0.002644166335843
7.032187938690143,0.0026452103114245
7.079290390014634,0.0027199035963139
7.083968639373765,0.0026408399099882
7.126201868057237,0.0026592956516147
7.129240274429307,0.0026962252138239
7.180297374725328,0.0026844336422591
7.220178365707383,0.0026458705730357
7.23156619071959,0.0027298500201689
7.263392686843858,0.0027174786912094
7.276052236556993,0.002790399606959
7.309367179870591,0.002824000502188
7.351790904998765,0.0028288448790491
7.355472087860093,0.002806206396715
7.397602558135972,0.0028813804623045
7.400781869888263,0.0028276893620809
7.444860458374009,0.0028187280394019
7.488416194915757,0.0028454481353861
7.494743585586534,0.0027741371829089
7.5349607467651225,0.0027452255199127
7.53747439384459,0.0027411379305908
7.576213598251329,0.0027146572758215
7.622631311416583,0.0027089016286689
7.624787807464585,0.0026998173420824
7.664220333099351,0.0027414462527256
7.6669869422912456,0.002797156105615
7.70681262016295,0.0027176652991884
7.753114938735948,0.0027573497583359
7.753532648086534,0.0027891473556156
7.80140376091002,0.002786256952443
7.8055272102355815,0.0027715970893635
7.844940900802598,0.0027953626885062
7.899178266525254,0.0027471952475863
7.908367395400987,0.0028148472830347
7.9376072883605815,0.0027049882922715
7.944808483123765,0.002740356692593
7.984756469726548,0.0027385466541988
8.030401229858384,0.0027304898150709
8.03877234458922,0.0027650023040285
8.07637786865233,0.0027469696212706
8.092847108840928,0.0027416723335877
8.121029376983628,0.0026797487448903
8.176047801971421,0.0027901976689493
8.213346958160386,0.0028332037024879
8.219702482223497,0.0028106203771594
8.260897397994981,0.0028054633632523
8.298032283782945,0.0028338201632038
8.307268857955918,0.002831134595678
8.346772909164415,0.002766143267374
8.35862827301024,0.0025136845874093
8.392193078994737,0.0026063263461964
8.439814090728746,0.0024799008204846
8.444277286529527,0.0024274041290174
8.482098579406724,0.002352070400072
8.495554208755479,0.0021900048896551
8.530659198760972,0.0021665169617101
8.539973258972154,0.0020037572137734
8.5849254131317,0.0020009431837725
8.625505447387681,0.0019772042120869
8.63800477981566,0.0040790888139599
8.677257776260362,0.004647175339052
8.681778907775865,0.005398434492824
8.718223094940143,0.0062057657524322
8.761987447738633,0.0067223903857279
8.768652677535997,0.007252066259785
8.811037778854356,0.007847931219449
8.814392566680894,0.0080847597306563
8.853688478469834,0.0077198024582874
8.893087387084947,0.0076648204678519
8.907397031784043,0.0076445112020928
8.942329883575425,0.0074670616968916
8.950649261474595,0.0075354850679429
8.989422559738145,0.0075204477278077
9.029942274093614,0.0073595107021944
9.041934013366685,0.0073520266766998
9.072743892669664,0.0077987388737393
9.082415819168077,0.0077860557198931
9.130697965621934,0.0076163098121447
9.177492856979356,0.007954432017162
9.182430982589707,0.0076189948736307
9.221523284912095,0.0075968870515869
9.228553295135484,0.0075452369206254
9.264980554580674,0.0078898999269059
9.275433301925645,0.0075113463608955
9.308648109436021,0.0074363844020346
9.360450506210313,0.0072390480152068
9.362601995468125,0.0074492620150168
9.397628784179673,0.007527300216699
9.408379077911363,0.0073645085791272
9.451854944229112,0.0076007503690602
9.497175931930528,0.0076074712717587
9.512660503387437,0.007593392802292
9.548801660537706,0.0073268683454554
9.55586743354796,0.0073723009473715
9.59147477149962,0.0074839532636753
9.599123716354356,0.0072200385588717
9.636034727096543,0.0071687701408835
9.684994220733628,0.0070101125719939
9.721385717391954,0.0067899613398903
9.736288070678697,0.0064614502180302
9.768272876739488,0.0060452390207523
9.815532684326158,0.0053767852373979
9.825156688690143,0.0050596120578723
9.85819578170775,0.0041826064004176
9.869168996810899,0.0039883042369561
9.90946006774901,0.0030915260381358
9.954309225082383,0.0027779328265108
9.963208675384507,0.001910150909933
10.010925531387315,0.002053942568132
10.049603462219224,0.0022300084018089
10.090159893035874,0.0021596138487377
10.138438940048204,0.0021658146323429
10.147980928421006,0.002185471886317
10.182527780532851,0.0022833666851566
10.192756652832017,0.0022756544236868
10.226785659790025,0.0022639123314376
10.273315668106065,0.0021911623908081
10.282705068588243,0.0020755289948483
10.318937301635728,0.0020063707196124
10.31953907012938,0.0019784577349547
10.360606670379624,0.0019115663172666
10.409278631210313,0.0017600015418509
10.420073032379136,0.0015553747889498
10.461847066879258,0.0015615934205322
10.467019081115708,0.0016823820043153
10.502589941024766,0.0018490557605344
10.514493942260728,0.001940964379708
10.562092542648301,0.0020156450588578
10.607989549636827,0.001994512349769
10.611915588378864,0.0020771301170662
10.648051261901841,0.0020973231127458
10.658782482147203,0.0021237539347075
10.693993568420396,0.0022044171899189
10.713338375091539,0.0019704671621787
10.755658149719224,0.0017910701647529
10.758706808090196,0.0018565673951711
10.798444271087632,0.0018364578665639
10.816991090774522,0.0018636255180347
10.854927539825425,0.0019780589729362
10.901280641555744,0.0019235259363617
10.903959751129136,0.0019240238607816
10.954263448715196,0.0019174232151417
10.994820594787583,0.0018951955825317
11.0026180744171,0.0019642807965176
11.042799472808824,0.0020365031564604
11.056960344314561,0.001968607569231
11.09544467926024,0.0020176009383033
11.143413305282579,0.0019940037690309
11.143947601318345,0.0020989613004928
11.183333873748765,0.0021396137169045
11.189073085784898,0.0021294241423214
11.228866815567002,0.0020855225961663
11.276170492172227,0.002085333461302
11.286628246307359,0.0020294909850016
11.319919824600206,0.003584766261539
11.32427072525023,0.0051560926359339
11.36804366111754,0.0058982232792662
11.421999216079698,0.00682886957674
11.455961465835557,0.0070803258576652
11.46075582504271,0.0074618757675842
11.503763675689683,0.0078026538999148
11.54673051834105,0.0077526437332093
11.555655956268296,0.0073919326880786
11.592245340347276,0.0070170378396951
11.598458528518663,0.0068433352056646
11.63830971717833,0.0069187693261568
11.680773735046373,0.007059508403949
11.691931247711167,0.0069209190188021
11.721560478210435,0.0070898772280594
11.736403703689561,0.007045118733195
11.764420509338365,0.0071155725883683
11.81208467483519,0.0071758171225291
11.818643093109117,0.0071192222152634
11.858996629714952,0.0068003597411739
11.867407321929917,0.0068619512352248
11.901545763015733,0.0068412929155512
11.958381891250596,0.0065521773794606
12.00289654731749,0.0063481994197261
12.014827489852891,0.0062944584308865
12.041492462158189,0.0061854028076845
12.054104566574082,0.0062530995119131
12.095300674438462,0.0060643445246158
12.143688201904283,0.0057732233787763
12.158854484558091,0.0057722765798771
12.182939291000352,0.0054351439936013
12.194083690643296,0.005701895781583
12.23115777969359,0.0054381289016281
12.280924081802354,0.0051266005443038
12.280972003936753,0.0046859347704197
12.32045984268187,0.0039383741845659
12.332245826721177,0.0038820593934686
12.371456623077378,0.0033561118877251
12.379505395889268,0.0034009917865831
12.421254873275771,0.0025006945793024
12.465759754180894,0.0024405995336867
12.477746248245225,0.0025152756193694
12.514979600906358,0.0025293493882605
12.52262711524962,0.0024959808580176
12.554972410202012,0.0024247796690398
12.569648504257188,0.0024047589163126
12.61464929580687,0.0023693512275798
12.66139960289,0.0022715900437494
12.667134761810289,0.0023020937955492
12.703090190887437,0.0023066174662422
12.705179214477525,0.0023930145654107
12.74603176116942,0.002372037015271
12.794982194900498,0.0025010100134829
12.843898057937608,0.0026448907708272
12.877810478210435,0.0025574849042758
12.88994193077086,0.0025465777940416
12.935432672500596,0.0025184322942564
12.97290968894957,0.0024845996916729
12.978984594345079,0.0024711148091044
13.021574735641465,0.0023714193158484
13.026038169860826,0.0022171861843331
13.0658185482025,0.0021131679473892
13.076937198638902,0.0020575605972385
13.112747669219956,0.0021435340409451
13.158867120742784,0.0022448918266328
13.164288282394395,0.0022564582195813
13.20548033714293,0.002248653671395
13.214344978332505,0.0023684711484881
13.248596191406236,0.0023911772455338
13.305886983871446,0.0024492189452658
13.344515085220323,0.0024782870784122
13.350991487503038,0.003772450429833
13.388706684112535,0.0052633946453303
13.428894281387315,0.0059003819008976
13.440146207809434,0.0062951208292601
13.473219871520982,0.0067370511921172
13.480613231658921,0.0070440469220293
13.52080392837523,0.0072995934726252
13.566448926925645,0.0074326782432501
13.577522277832017,0.0076036113691083
13.61388540267943,0.0069255337168095
13.622943878173814,0.0067733688912053
13.658070802688584,0.0064949024633277
13.701286792755113,0.0066911705673411
13.71551680564879,0.0066674062463956
13.75234723091124,0.0065270697589721
13.753891468048081,0.0067397019663631
13.79489707946776,0.0063508971561255
13.806754589080796,0.0065382224110241
13.851482868194566,0.0065815055036475
13.897602796554551,0.0063027781069817
13.937089681625352,0.006143016219251
13.941627264022813,0.0060980717236144
13.977453708648667,0.006156549076074
14.021620988845811,0.0062657831598302
14.031361579895005,0.0061432455271417
14.07047605514525,0.0058744932324734
14.076871871948228,0.0059493783992235
14.117607831954942,0.0059765550075851
14.163471937179551,0.0059112203781521
14.171363830566392,0.0057634844314032
14.206346988677964,0.0051108701970721
14.213323593139634,0.0047041408001441
14.259721279144273,0.0041359633317308
14.297123670577989,0.0038310389628616
14.302877664566026,0.003314620919359
14.346779823303208,0.0027949191945276
14.351936578750596,0.0019182752400562
14.391211032867417,0.0018764013704479
14.438068389892564,0.0020780522373668
14.47723555564879,0.0020947692855175
14.485699892044053,0.0021136211966372
14.525274276733384,0.0020696566910479
14.568126201629624,0.0021322800174296
14.585489034652696,0.0021392186553755
14.614260673522935,0.0021010005342062
14.618259191513047,0.0022426568160101
14.665508985519395,0.002310083679957
14.70549917221068,0.0022898967637431
14.718897819519029,0.0023680428836381
14.752423048019395,0.0024135763679681
14.754084587097154,0.002439929911531
14.795356988906846,0.0024393063049721
14.84009981155394,0.0024265683259755
14.845318078994737,0.0024077796625308
14.885018587112413,0.0022547345403045
14.896264076232896,0.0021627425163749
14.926136255264268,0.0020551767027103
14.977336883544908,0.0019212396875837
15.019146919250474,0.0019438942265024
15.026225805282579,0.001921063709595
15.072864532470689,0.0019240824316537
15.114799022674546,0.0019788564166182
15.124701023101792,0.001935586327506
15.161262750625596,0.0019674050512965
15.197575807571397,0.0020284634578393
15.209828138351426,0.0020491085921329
15.254262208938584,0.0021991965985788
15.29760622978209,0.0022332655305292
15.308761119842515,0.0022048516812272
15.348520755767808,0.0022568577252999
15.355979442596421,0.002231044128751
15.388642072677598,0.0022666236195572
15.434720754623399,0.0021559579981463
15.440398931503282,0.0021216303395113
15.483903884887681,0.0019822988239763
15.489877939224229,0.0019090001187436
15.521041393280015,0.0018356906490197
15.530152082443223,0.0035419292113086
15.576294898986802,0.0050583868865872
15.622422933578477,0.0062220968744204
15.666424751281724,0.0066025072928313
15.674789190292344,0.0068118425152927
15.712262630462632,0.0071569310224089
15.754919767379747,0.0074673107120112
15.765007019042955,0.0074674767174776
15.797243833541856,0.006878297234169
15.808086156845079,0.0065158720752134
15.84080052375792,0.0062635705481966
15.884416580200181,0.0063128722058714
15.896864891052232,0.006321568762699
15.929548740386949,0.0064075158863984
15.94789099693297,0.0065328252833977
15.983097791671739,0.0065791335754168
16.03586673736571,0.0064407583472873
16.06813788414,0.0061769706517819
16.07560515403746,0.0063383571615323
16.11247086524962,0.0060887876052486
16.169808149337754,0.0060032331656707
16.20740675926207,0.0059006492857666
16.213963270187364,0.0057521129142386
16.251029014587388,0.0057106939496325
16.293846607208238,0.0059459394217657
16.306041002273545,0.0057911831474775
16.341907739639268,0.0054654867640029
16.348593473434434,0.0055983597501332
16.384535074233995,0.0052480743347399
16.434992074966416,0.0048688895848133
16.43960618972777,0.0044060985220628
16.477571010589585,0.0041363311527401
16.49336457252501,0.0039769574454693
16.52715396881102,0.0034194973050897
16.56923413276671,0.003071173295608
16.585393667221055,0.0024941967964477
16.62129998207091,0.002389456422746
16.63284897804259,0.0024127591285791
16.668985128402696,0.0024099550610054
16.67808127403258,0.0023137151802951
16.721571683883653,0.002259901634068
16.731920480728135,0.0022039059140075
16.769321203231797,0.0021559057267955
16.81458711624144,0.0020079147405711
16.81757497787474,0.0018709883159188
16.860401868820176,0.0018250392374026
16.86983966827391,0.0018030477644395
16.907271146774278,0.001774508652122
16.913067817687974,0.00173673277781
16.954949140548663,0.0017963790055568
16.99566555023192,0.0017584320991316
17.006111383438096,0.0018376847483967
17.042886734008775,0.0018510050209781
17.048799991607652,0.0018868524383931
17.084839582443223,0.0018820383831096
17.130580663681016,0.0020108030815766
17.14570307731627,0.0019293757337499
17.17334890365599,0.0019451112794892
17.183808088302598,0.0019405579132576
17.216613292694078,0.0019281487484674
17.270328283309922,0.0019366922272556
17.30737447738646,0.0020315722159206
17.318221092224107,0.0020769130880849
17.356678247451768,0.0020626206397144
17.401358604431138,0.002097645480272
17.412527084350543,0.0021199299317228
17.45044064521788,0.0021484178295267
17.459836244583116,0.0021920108365204
17.500109434127793,0.0021286036926379
17.53685307502745,0.0020495210231692
17.54156398773192,0.0021114073516997
17.583573341369615,0.0020234572333201
17.585869312286363,0.0020051627478289
17.62470197677611,0.001942705415531
17.67318248748778,0.0019087934930391
17.67796421051024,0.001779423627022
17.71762132644652,0.0017812276587315
17.725543737411485,0.0017647972823847
17.768790245056138,0.0017319569282567
17.779530286788926,0.0017305248592923
17.812280416488633,0.0017357591818569
17.825200080871568,0.0017784417187005
17.868576288223252,0.0018684267000075
17.913815259933457,0.0018859264637521
17.92322969436644,0.0019780589729362
17.970134735107408,0.0033008055735484
18.01200437545775,0.0043640802624551
18.01695609092711,0.0047718567968213
18.064036130905137,0.0053468454055886
18.116374969482408,0.0059795052316223
18.160832881927476,0.0063076574495461
18.169625043869004,0.0064859518222014
18.21085953712462,0.0066942856336868
18.220002174377427,0.0065413844711758
18.2553355693817,0.0063539928162483
18.25733566284181,0.0059559855086836
18.301868915557847,0.006325168755351
18.35050034523009,0.0062599171290967
18.385283470153794,0.0062289031943504
18.40887570381163,0.0063225580738157
18.443282365798936,0.0060150198781048
18.484558105468736,0.0061443094037768
18.49538636207579,0.0060988293639794
18.532783269882188,0.0060086933722164
18.54436326026915,0.0059256535218119
18.578210592269883,0.0057595822848748
18.587930679321275,0.0056753598737178
18.626860618591294,0.0054420130468615
18.67079687118529,0.0055537760397296
18.678528547286973,0.0055014518733431
18.70939755439757,0.0054954569450037
18.726884365081773,0.0054019195285106
18.767378807067857,0.0053884573589161
18.81104707717894,0.0051889256489974
18.825649023056016,0.0052907507845538
18.859844684600816,0.0054909744114976
18.86791920661925,0.0055016362290851
18.900218963623033,0.0051283038744603
18.905772686004624,0.0052011168850369
18.94539928436278,0.0050292069503154
18.99868988990785,0.0043194494662677
19.032778501510606,0.0038721331968276
19.0491211414337,0.0032279289957109
19.080646753311143,0.0027803455381682
19.131759166717515,0.0020644774300967
19.172457218170152,0.001937797495869
19.191418886184678,0.0019789133645848
19.233639717102037,0.0019456616009826
19.27312326431273,0.0018733358932701
19.283604621887193,0.0018621434132228
19.327862739562974,0.0017900316898137
19.372930765151963,0.001834124530095
19.416004419326768,0.0018736667252185
19.431602001190143,0.0019588516997511
19.4706995487213,0.0019549357200715
19.477006196975694,0.0020037290930359
19.517828464508042,0.0021942717545552
19.566933870315538,0.0035262085553574
19.576726913452134,0.004305233233588
19.60574889183043,0.0044065460916228
19.617944240570054,0.0043889415157809
19.6546058654785,0.0043677326829077
19.699078083038316,0.0043501005615267
19.711494684219346,0.0043763547298173
19.738789081573472,0.0044059450591759
19.75552344322203,0.003385398937124
19.78466129302977,0.0030981896415042
19.826994657516465,0.0019754080104232
19.829810380935655,0.0019336640510094
19.869660615921006,0.0019032949360335
19.87692308425902,0.0018449372853921
19.92715740203856,0.0017807214483743
19.965292930603013,0.0016684248314296
19.971825838088975,0.001621809361361
20.010894060134873,0.0017571498821759
20.021009683608995,0.0017794552924631
20.058345317840562,0.001829664515329
20.09706306457518,0.0018210211604692
20.11018347740172,0.0019021992416982
20.141433954238877,0.0019527439580865
20.151566267013536,0.0034309468773324
20.188575744628864,0.0039781190766071
20.239363670349107,0.003955904296061
20.248408555984483,0.0039423352608601
20.28738141059874,0.003916897891459
20.299229383468614,0.0039250029566299
20.325954198837266,0.0039223893225811
20.37273001670836,0.0038711144326964
20.3775758743286,0.0027930436464849
20.424075365066514,0.0018043285934514
20.45900440216063,0.0018188229244381
20.50701022148131,0.0018721624725593
20.544845104217515,0.0018133622858188
20.553173065185533,0.001842400615764
20.59187293052672,0.0018858965860327
20.6043984889984,0.0024390752991185
20.63378787040709,0.0024724597700554
20.64984846115111,0.0034342299237535
20.677352666854844,0.0042885661699937
20.727762460708604,0.0050307080489893
20.733942508697496,0.0055538064766326
20.769303083419786,0.0061892003579271
20.773554325103746,0.0064352006755266
20.820771932601915,0.0066418689046866
20.869879007339463,0.0069993576206527
20.87565994262694,0.0071442994076461
20.914906978607164,0.0066594490386674
20.91898131370543,0.0067376868040134
20.961086988449082,0.0066617754542639
20.966799259185777,0.0061019420933455
21.001455068588243,0.0063169320889814
21.0116090774536,0.0061176846163327
21.061985015869126,0.0060628762930541
21.113016128540025,0.0060185223678252
21.144922494888263,0.0058597994614411
21.157738685607896,0.0056517508871491
21.200969696044908,0.0056782681235656
21.239146947860704,0.0055452572958892
21.247219324111924,0.0055210613826859
21.29213953018187,0.0054200180668026
21.304215431213365,0.0051696367248955
21.3265504837036,0.0051965539447482
21.337736368179307,0.0049386597921696
21.386133193969712,0.0052524101501208
21.43523788452147,0.0051507022229313
21.459125995635972,0.0051352651625
21.482730150222764,0.0049497486087396
21.494615077972398,0.0046537666335902
21.52688312530516,0.0043371672212601
21.533391714096055,0.0040157593247428
21.574741363525376,0.0038806076569726
21.6123752593994,0.0033048829289174
21.62264251708983,0.0026604819482666
21.66381716728209,0.0019718392743363
21.66756415367125,0.0018484157115439
21.707740545272813,0.0018310498204125
21.74967288970946,0.0018476229627405
21.757472753524766,0.0017855246523743
21.802664756774888,0.0017535225536757
21.805237293243394,0.0018313267556797
21.84105539321898,0.0019608067568277
21.852478981018052,0.0019413997850404
21.893887042999253,0.0018577809966833
21.938998937606797,0.0019178052041546
21.94136786460875,0.0019745521020032
21.99049568176268,0.0020737907865394
22.032803058624253,0.0020770487338557
22.08354306221007,0.0019923641257594
22.116133928298936,0.001961812276721
22.126757383346543,0.0019624153413527
22.16774725914,0.0019498274091082
22.179961442947373,0.0019315648402993
22.224412679672227,0.0018080721472393
22.268307924270616,0.0018273225043451
22.275300741195665,0.0017865972859708
22.308024168014512,0.0018188229244381
22.316714763641343,0.0019240531464405
22.36540842056273,0.0019475141713627
22.367097139358506,0.0019696377145496
22.407746791839585,0.0020021537013733
22.446714639663682,0.0020814118024994
22.45307898521422,0.0020501257719385
22.49374127387999,0.0020590662330759
22.497409582138047,0.0021038682102481
22.53773760795592,0.0020370011263484
22.58663463592528,0.0019842591758668
22.62765288352965,0.0019471380106558
22.635020971298204,0.0018489948130334
22.676572084426866,0.001805982953156
22.733608007431016,0.001717254418993
22.771698951721177,0.0016512134412363
22.77810168266295,0.0016400167876038
22.81148529052733,0.0016381604366508
22.852433443069444,0.0015640811553508
22.864247083663926,0.0017134439871083
22.900992631912217,0.0047274642592258
22.91975069046019,0.0061106068830736
22.947037935256944,0.0066137968450059
22.96202707290648,0.0068840210326197
23.005217075347886,0.0072128785432047
23.04730653762816,0.0074331709884325
23.055958271026597,0.0076148004364239
23.08926105499266,0.0079563939575047
23.094233274459825,0.0072198980816299
23.14334106445311,0.0063403215032172
23.183554649353013,0.0058743109861867
23.18551588058473,0.0058611743613892
23.22561645507811,0.0058242767513195
23.237997531890855,0.0059674595309059
23.27012491226195,0.0058819796275523
23.28906178474425,0.0058023906986059
23.32472944259642,0.0057207493151174
23.37144780158995,0.0056260501672061
23.37572360038756,0.0055359621246404
23.412496566772447,0.0056321562035341
23.420547723770127,0.0054216396067873
23.465443849563584,0.0056796572052361
23.509988069534288,0.0055301778230119
23.54627442359923,0.0055716948093938
23.55685472488402,0.0053731370875234
23.594525337219224,0.0056373461320258
23.636492729186998,0.0054161389550047
23.645613431930528,0.0052520453927104
23.68460130691527,0.0049529122821383
23.695858955383287,0.0049149284421268
23.739813327789292,0.0045333591047009
23.78359174728392,0.0041389185984444
23.78446269035338,0.00392919262737
23.825105190277085,0.0035380772628686
23.840229272842393,0.0030091207473236
23.86516737937926,0.0029020740573533
23.88089585304259,0.0026556699303977
23.91781139373778,0.0019680922943709
23.96982645988463,0.0018095362617926
24.010036230087266,0.0017644779718676
24.02020978927611,0.0018503351943181
24.055563211441026,0.001861628937895
24.0963578224182,0.0018248539824423
24.133544683456407,0.0018591453514495
24.14033937454225,0.0019043899999591
24.15426611900328,0.0019581899886868
24.191049098968463,0.0019763205708348
24.23809409141539,0.0020020692704077
24.278911828994737,0.0019874937817925
24.285706281661973,0.0019394542177691
24.332458972930894,0.0019360811502179
24.377754688262925,0.0018786821995183
24.41554713249205,0.0019107702796519
24.42067694664,0.0020273520318297
24.458618640899644,0.001981047731588
24.47579479217528,0.0019172468868512
24.51710128784181,0.0018689694528729
24.566215038299546,0.001868366384401
24.605893611907945,0.0034759628537366
24.612482786178575,0.0034762384195502
24.64906287193297,0.0033592835648214
24.700489997863755,0.0033800019643478
24.702525377273545,0.0034097448553185
24.73856377601622,0.0034443056852788
24.750595092773423,0.0034669219052948
24.786817789077745,0.0034799483263882
24.801102876663194,0.0021089774534081
24.845012664794908,0.0018746288134592
24.888947963714585,0.0019168647865779
24.897115945816026,0.0019288207656599
24.941997528076158,0.0018814994002196
24.973152160644517,0.0017729520513524
24.989302873611436,0.0018101900578739
25.030955076217637,0.0017825241666037
25.073836565017686,0.0017269068629744
25.077881097793565,0.0016463948642899
25.125844001770005,0.0016185750250851
25.133322477340684,0.0015998771198159
25.174470663070665,0.0016136939071399
25.217972993850694,0.0033400565013102
25.223404169082627,0.0033390103978223
25.261554479598985,0.0042408166184761
25.26695108413695,0.005340856289018
25.311380863189683,0.0061110863633187
25.31853103637694,0.0066879023987081
25.351743698120103,0.007039317807757
25.365067005157456,0.0075083826642252
25.415245532989488,0.0072326469659184
25.464205265045152,0.0075064762765825
25.46979427337645,0.0073071234896457
25.50017952919005,0.0068278133345812
25.50156474113463,0.0064451922917599
25.547037601470933,0.0063165485193708
25.55289220809935,0.006148471426705
25.592354774475083,0.0059302350639252
25.642644643783555,0.0059235041095789
25.6804962158203,0.0058244605631683
25.694790601730332,0.0057332544098088
25.7325563430786,0.005793576170329
25.77632117271422,0.0053170337135103
25.81547331809996,0.0055781431931504
25.825139045715318,0.0053145851502153
25.864827871322618,0.0050475367405765
25.904885768890367,0.0051400359871223
25.914708137512193,0.0052931252118392
25.949820518493638,0.0050731915895037
25.953735113143907,0.0050727361917919
25.998476743698106,0.0047626020515957
26.047950267791734,0.0047849694281902
26.058036565780625,0.004528397075941
26.097966194152818,0.0042287083764745
26.10180544853209,0.0038923656292849
26.13747119903563,0.0032226529712676
26.1575412750244,0.0029994992784693
26.18517994880675,0.002669911138026
26.232798814773545,0.0025141776908829
26.244313001632676,0.0019638504641413
26.27805614471434,0.0018991754055675
26.279899120330796,0.0018450289069394
26.336508274078355,0.0019787994670127
26.344456195831285,0.0019855933798568
26.385391712188706,0.0020291300212369
26.40306735038756,0.0019835491272579
26.438531875610337,0.0019549068970519
26.451970577239976,0.0018977507566912
26.487150907516465,0.0019572401864008
26.53897929191588,0.0019234966426759
26.542902231216416,0.001802047460471
26.58550667762755,0.0019189213514281
26.630849123001084,0.0019428794333044
26.63989686965941,0.0020318495523062
26.672748804092393,0.001994399343035
26.720570564270005,0.0019374485317935
26.757692813873277,0.0018825173494627
26.76974272727965,0.001934508922909
26.810722351074205,0.0019480638140474
26.848173856735215,0.0017994190168654
26.856965303421006,0.0017968180876745
26.896911621093736,0.0019448215740498
26.911421775817857,0.0019292297049936
26.948431730270343,0.0019913174410925
26.953199148178086,0.0019853663446241
26.999040365219102,0.0018801512670123
27.044505119323716,0.0018727944058392
27.085471868515,0.0019436333302847
27.104034185409503,0.0017665205618183
27.13130712509154,0.0018176143114278
27.171829700469956,0.0018010153151095
27.175120115280137,0.0018632929032476
27.21398282051085,0.0018722226658709
27.221470355987535,0.0018948685093881
27.270048856735215,0.0018906412126685
27.311359405517564,0.0017929567600213
27.328619003295884,0.0018010466009323
27.354051351547227,0.0016228513205827
27.36350345611571,0.0015856912425773
27.39939999580382,0.0015584148952169
27.44579482078551,0.0014402208235162
27.493206977844224,0.0014430740257679
27.531865835189805,0.0015061231259071
27.543183326721177,0.0014719143904925
27.574081420898423,0.0015257486761872
27.586109876632676,0.0015943027410597
27.61909127235411,0.001684423791732
27.660835981369004,0.0018024226395154
27.673642873764024,0.0019013400128512
27.710680484771714,0.0019994501420996
27.71397495269774,0.0020168188141388
27.749925136566148,0.003211109960134
27.79318261146544,0.0054377558777293
27.802872180938706,0.0064106633117747
27.837704896926866,0.0068809591060791
27.844690084457383,0.0072811754768768
27.883121252059922,0.007651701794128
27.93323135375975,0.0078376501624355
27.97540736198424,0.0080884875538775
27.982910633087144,0.0082962838695422
28.012955665588365,0.0072749741480705
28.019648075103746,0.006586922624523
28.056661605834947,0.0062463015160197
28.07697224617003,0.0062627158751236
28.109107971191392,0.0061134002487215
28.152224063873277,0.0060408193246401
28.15887594223021,0.0060367230911594
28.190605878829942,0.0059540931035316
28.197881937026963,0.0060991989104933
28.244763612747178,0.0060765505368689
28.28575992584227,0.0060290737038859
28.303379297256456,0.0058046432021663
28.333952665328965,0.0057893828648277
28.342991590499864,0.0056330065192587
28.377266407012925,0.0056072098361012
28.38655018806456,0.0056276924412324
28.43399024009703,0.0054794692535511
28.4770996570587,0.0054274253830917
28.483919143676744,0.0054025036258072
28.522405147552476,0.0054416506439442
28.535206556320176,0.0051028708983385
28.568957090377793,0.0048152784934926
28.581532001495347,0.0044343342480668
28.616469144821153,0.0040641566526598
28.66132259368895,0.0036462326033934
28.670727014541583,0.0031909195798789
28.710377454757676,0.0026164676481997
28.716516017913804,0.0020837656834512
28.760664939880357,0.0020235129260809
28.808519840240464,0.0020614729631041
28.844488620758042,0.0020632488587663
28.855630874633775,0.0020695750139551
28.893284559249864,0.0021135945376073
28.896274328231797,0.0021483916022824
28.942772626876817,0.0020479808568581
28.9978790283203,0.001897156837246
29.02886295318602,0.0018912669716156
29.04490756988524,0.0018347695644902
29.07389903068541,0.0019119789470329
29.118042469024644,0.0019897888590966
29.13121581077577,0.0020451174707364
29.16159605979918,0.0020850902626961
29.176473855972276,0.0021239927063013
29.207100152969346,0.0021058759356596
29.260213851928697,0.0022284665513374
29.297926664352403,0.0021278358887995
29.30797696113585,0.0020234293863648
29.351543426513658,0.0019476009673623
29.390104532241807,0.0019336640510094
29.397150516509996,0.001841176876387
29.433822393417344,0.0017397798503717
29.440949678421006,0.0017136084045985
29.479244947433457,0.0016948950586782
29.526597738265977,0.0018263046433591
29.572435379028306,0.0018936786762926
29.574328184127793,0.0019626450315178
29.62014508247374,0.0019687506772028
29.666814804077134,0.002080599501938
29.667278289794908,0.0020969469546626
29.710225820541368,0.0021192387513392
29.71289491653441,0.0021607354754567
29.7548575401306,0.0021553306582693
29.766383886337266,0.0020975111664905
29.812598466873155,0.0021286566344182
29.85663771629332,0.002095199621773
29.86265087127684,0.0020035322368217
29.90143275260924,0.0020587651939977
29.91382217407225,0.0019801658054921
29.948044061660752,0.0019827535709381
29.953969478607164,0.0019439232128096
29.990894556045518,0.0018765515101835
30.04291462898253,0.0019537247871297
30.0448806285858,0.0020196107239089
30.0858061313629,0.0021582827916326
30.091439008712754,0.0021197172848399
30.1306538581848,0.0021749013164722
30.17440557479857,0.0037236664637612
30.18183064460753,0.0051174478183259
30.21779370307921,0.0059681582225864
30.22883558273314,0.0064266754225938
30.26626586914061,0.0068431540594038
30.304781436920152,0.0071525995449676
30.316441059112535,0.0073520190125866
30.349935770034776,0.0075575712034573
30.356909990310655,0.0077217948245511
30.398180961608873,0.0069770550350428
30.443203926086383,0.0064994468523678
30.45462036132811,0.0064002920632622
30.48563933372496,0.0062136328997697
30.4980752468109,0.0060635546973895
30.534891605377183,0.0059485070007397
30.5753080844879,0.0061387587100005
30.58196640014647,0.0061414658733436
30.624111890792832,0.0062032047374999
30.630586147308335,0.0061249473641203
30.666523218154893,0.0058031092645319
30.71496176719664,0.0058193890979458
30.719307184219346,0.0059733486403085
30.754225492477403,0.0057599051190775
30.761921167373643,0.0059178986542518
30.80360388755797,0.0057476736890635
30.845112085342393,0.0057353768766532
30.897755146026597,0.0055120627576033
30.906002998352037,0.005331722615426
30.943988800048814,0.0051428196634194
30.98282456398009,0.0049940269001565
30.990980863571153,0.004555936740364
31.025516271591172,0.0048972989610401
31.03165268898009,0.004464474289733
31.08097958564757,0.0042165386382728
31.1219971179962,0.0039383312630153
31.128661870956407,0.0036308704569538
31.164323091506944,0.0034489322849011
31.177737474441514,0.0029074860812513
31.20800185203551,0.0029060710055527
31.216765403747544,0.0019186864270124
31.262905836105332,0.0017922337998937
31.30608510971068,0.001850243835531
31.346582412719712,0.001829572124362
31.35795712471007,0.0019078190990075
31.398988962173448,0.0018896276397849
31.40143489837645,0.0020164555819423
31.432805299758897,0.0078843417820663
31.44438767433165,0.0086816326506991
31.47929954528807,0.0087795454395244
31.525314569473252,0.0088219427728371
31.529806375503526,0.0088236160374598
31.567157030105577,0.008818889204897
31.573301076889024,0.00883171602752
31.620851755142198,0.0087965878253797
31.67024946212767,0.0027290242567245
31.705695867538438,0.0022654300576588
31.712145328521714,0.0022095744450635
31.75048160552977,0.0020725405488642
31.757919549942002,0.0020593398667776
31.805650234222398,0.0020155891486998
31.851732969284043,0.0020283523426434
31.855886459350543,0.0018990270545096
31.891761064529405,0.0018456090711155
31.901139736175523,0.0017743816338582
31.94275021553038,0.0017161384447502
31.983807086944566,0.0017230196720823
31.993299245834336,0.0016364052826869
32.027179241180406,0.0016829512760163
32.0369734764099,0.0015630360680019
32.077612876892076,0.0015617377452479
32.12251543998717,0.0016223998870805
32.13001394271846,0.0016952607139047
32.161231279373155,0.0017434034520071
32.16778779029845,0.0018650158098845
32.213286161422715,0.0019399480538981
32.2614390850067,0.0019715534963852
32.26477694511412,0.0020918891362091
32.30244183540343,0.0020830354533281
32.3111319541931,0.0020641225846011
32.35002279281615,0.0025143793871587
32.35808753967284,0.0046720015332943
32.398793220520005,0.0059247786339461
32.437529087066636,0.0063044675375322
32.45126700401305,0.0063058259046166
32.484128475189195,0.0062721198571782
32.48704528808592,0.006282299093366
32.53165531158446,0.0062827923759577
32.576732158660874,0.0063076217171713
32.587511062622056,0.0049162008264988
32.62124848365785,0.0033304098036447
32.62768507003783,0.0025247561214785
32.66830992698668,0.0020968932122852
32.682038545608506,0.0021013491522955
32.7168560028076,0.0022592532760686
32.76602220535277,0.0022393126987543
32.770325183868394,0.0022378779758906
32.81071090698241,0.0034399349553421
32.81423974037169,0.0044537966613892
32.858146667480455,0.0050194725436634
32.904116868972764,0.0058340011405054
32.90700435638426,0.0062032864883526
32.95050215721129,0.0068731343617798
32.955543041229234,0.0072919474991023
32.998907089233384,0.0076373433512882
33.0431830883026,0.0080466442898057
33.04912447929381,0.0074521736127499
33.095467329025254,0.0077232832901864
33.10155344009398,0.0073030894152947
33.13816046714781,0.0071387053697021
33.143711566925035,0.0069806479324234
33.180204868316636,0.0068853796332283
33.23104858398436,0.0065003137411833
33.23853278160094,0.0058904705624757
33.2814962863922,0.0052343026170708
33.32374715805052,0.0045693360565663
33.32738876342772,0.0059825952790881
33.3714871406555,0.0059332273137524
33.413537263870225,0.0061507804089894
33.45789217948912,0.006322370918721
33.46507263183592,0.0062953087944809
33.503253459930406,0.0062714101060789
33.55382919311522,0.0052240551678271
33.592784166336045,0.0040060800232886
33.594880342483506,0.0031941141625558
33.63658452033995,0.0026909746083028
33.68301105499266,0.0022058736761283
33.688983440399156,0.0018244525321633
33.728383302688584,0.0018702955190237
33.72979068756102,0.0017611857044988
33.781077623367295,0.0018815592948318
33.824256420135484,0.0017815439671635
33.861102819442735,0.0018239583182154
33.871091365814195,0.0020934239145514
33.91224098205565,0.0023266835300158
33.95811200141905,0.0025110829859615
33.99939465522765,0.0025371122066524
34.00918650627135,0.0025231264038067
34.04617881774901,0.0025543544317046
34.08448195457457,0.0025734085959693
34.0987570285797,0.0024402762907595
34.130376815795884,0.0020463018566058
34.139624595642076,0.0019828104069752
34.185499668121324,0.0018264897511837
34.23517322540282,0.0037173207245467
34.27585458755492,0.0036943614101069
34.28624296188353,0.003692194978012
34.32196235656737,0.0037160320806124
34.327514648437486,0.0037439186116863
34.36757135391234,0.0038134076813377
34.415057659149156,0.003851809119022
34.42120528221129,0.0039022692397402
34.45484328269957,0.0021902107123468
34.46428298950194,0.0020835223018469
34.504980802536,0.002099793332344
34.55900931358336,0.002108710260865
34.59800457954405,0.0021355806602793
34.61303019523619,0.0020334019370411
34.646452665328965,0.0019761780110485
34.64797520637511,0.0019826683138276
34.690735340118394,0.0019971661672531
34.743796110153184,0.0019400061440017
34.75243973731993,0.0018944521528088
34.789564132690415,0.001739520732844
34.792351007461534,0.0016934316482291
34.826020479202256,0.0016470449978984
34.8689568042755,0.001684289979864
34.87847733497618,0.0017189598017476
34.91416811943053,0.0016788616363559
34.921997070312486,0.00169851489491
34.97316980361937,0.00178148070997
35.019385337829576,0.0018589331842543
35.02848434448241,0.0019120968248966
35.06812739372252,0.0019848554204009
35.07388138771056,0.002016287914243
35.10793304443358,0.0020271018769979
35.113010406494126,0.0020392128546073
35.154594659805284,0.0020419189568927
35.19275879859923,0.0020112233677386
35.20474338531493,0.0020728667705219
35.243758678436265,0.0020018722509732
35.24861931800841,0.0019363721633341
35.28639268875121,0.0018191017210968
35.29970002174376,0.0017808163737769
35.345841169357286,0.0017609297368055
35.388653278350816,0.0017577269955549
35.39581179618834,0.0017038806268262
35.43110847473143,0.0016244823796634
35.443500518798814,0.0016542817900456
35.47683405876161,0.0016702138102873
35.52395892143248,0.0017884570939795
35.53133463859557,0.001771171403913
35.57965254783629,0.0018538642814202
35.62107896804808,0.0019623866281918
35.63011288642882,0.0021109269343916
35.66673588752745,0.002141929943528
35.712232351303086,0.0022837368107868
35.72694611549376,0.0024332235546081
35.76117372512816,0.0025393099461739
35.8071720600128,0.0025447627780431
35.81601548194884,0.0025206239665757
35.857201814651475,0.0024485977044304
35.910437583923326,0.0024103057478513
35.915824651718125,0.0022458705124378
35.95121026039122,0.0022067930668685
35.956508636474595,0.0021468173812692
35.996372938156114,0.0020411461509015
36.00336694717406,0.0019847134736636
36.053387165069566,0.0020341776851446
36.09825468063353,0.0020438772621986
36.10003876686095,0.0020322654859211
36.13675928115843,0.0020955492049093
36.143435478210435,0.0020994176168565
36.185669422149644,0.0020897061963512
36.19535589218141,0.0020959793810355
36.2293710708618,0.0020192758985538
36.24268841743468,0.0019841739834499
36.291936635971055,0.0020315444801997
36.32926201820372,0.0020167349971309
36.33758258819579,0.0019741240086342
36.387071847915635,0.0020334573574343
36.41720366477965,0.0020188014675741
36.438065290451036,0.0020020411259613
36.47674274444579,0.0019431114327599
36.52672958374022,0.0018784422426633
36.536408901214585,0.001753297605073
36.57769727706908,0.0016488230000746
36.6156826019287,0.0016207667322842
36.62586426734923,0.001665517871311
36.66772437095641,0.0017705031994199
36.719074249267564,0.0019972790174393
36.75620794296263,0.0021208334431105
36.75757765769957,0.0022222123848055
36.79752707481383,0.0022498811777379
36.81628227233885,0.0022925035870175
36.859223842620835,0.0022517336944599
36.89940524101256,0.0022957456816059
36.91258025169371,0.0022474254946087
36.9455952644348,0.0021988122423574
36.953403711318956,0.0022041360028439
36.99382972717284,0.002157133768673
37.03985738754271,0.0021470010998633
37.04463505744933,0.0021065447522319
37.08499360084532,0.0020193038027872
37.0907323360443,0.0020605160776215
37.12823176383971,0.0020199175983948
37.13629388809203,0.0019666602669577
37.17699337005614,0.0018697531510894
37.218927860259996,0.0018761611218799
37.23846340179442,0.0018840432420808
37.26437854766844,0.0018832056501754
37.27491760253905,0.0019133046542764
37.30884933471681,0.0018784422426633
37.35286879539488,0.0019594556755643
37.361577749252305,0.0020149181057952
37.39801263809203,0.0021481555426742
37.40754079818724,0.0022600013649434
37.44699978828429,0.0023701596607899
37.487888813018785,0.0027066125973318
37.49234104156493,0.0040824027220651
37.53573966026305,0.0054283596694937
37.54635882377623,0.006659736712259
37.577780485153184,0.0069970307051474
37.621876478195176,0.0074272255427109
37.63007593154906,0.007823208055086
37.665445089340196,0.0081482188800687
37.68246293067931,0.0086022105482191
37.71923422813414,0.0085014008384025
37.76148676872252,0.0081358935493472
37.76834726333617,0.0075871421726251
37.81389760971068,0.007022937401446
37.85127139091493,0.0064886964928742
37.869251966476426,0.0062134696692451
37.90539789199828,0.0056012476215557
37.95672035217284,0.004661811347308
37.99676609039305,0.0057305215594006
38.00517034530641,0.0058836845408905
38.03994226455687,0.0064057216897425
38.086038351058946,0.0068522712910536
38.090252399444566,0.0072257723803418
38.12872481346129,0.0074446465027753
38.153923273086534,0.0076513041305941
38.18285703659056,0.0080253986262766
38.194723367691026,0.0072887786361437
38.24086260795592,0.007006036160513
38.288834571838365,0.006596171919885
38.292931556701646,0.0061505055756002
38.33015346527098,0.0053879972342373
38.371431112289415,0.0048248409537384
38.383388519287095,0.0048459445007335
38.42316555976866,0.0040619100131731
38.4667453765869,0.0032591119006778
38.476181268692,0.0024436451505805
38.50640702247618,0.0026429940353169
38.51401925086974,0.002457533006537
38.55462074279784,0.0025133034866443
38.60421490669249,0.0024298634351456
38.642939090728746,0.0022561835183643
38.648042678832994,0.0021792236108276
38.68778038024901,0.0020433258167801
38.73420476913451,0.001852404784958
38.7367067337036,0.0019590530457117
38.77702975273131,0.0018642301201522
38.78154253959654,0.0018105635496367
38.82586073875426,0.0017464388860506
38.86858820915221,0.0016823820043153
38.88635659217833,0.0017721255446944
38.915928125381456,0.0019644242196941
38.92517447471617,0.0019819008347919
38.956835269927964,0.0019870684765766
38.97304081916808,0.0019956702998434
39.01267337799071,0.0020158686839829
39.06253647804259,0.0021072935747858
39.070758581161485,0.0022724828474169
39.109855890274034,0.0022217052040652
39.117211341857896,0.0022308168152492
39.153487682342515,0.0022131162691318
39.159710407257066,0.0022450424214493
39.198221445083604,0.0022931671156275
39.216377973556504,0.0021750049448852
39.26089167594908,0.0021958889365104
39.307349681854234,0.0022045449903694
39.316597700119004,0.0021938865355298
39.35317707061766,0.0021546769850049
39.38953518867491,0.0019913457371009
39.39602994918822,0.0020555879162475
39.44043660163878,0.0020773199988249
39.484699249267564,0.0021295829025246
39.50708103179933,0.0022358627769443
39.53080892562865,0.0020456408885856
39.53980708122252,0.002127782926598
39.57517910003661,0.0021618565202469
39.62119841575618,0.002200758955658
39.622099876403794,0.0023013104207051
39.662053823471055,0.0023075943912219
39.670428991317735,0.0022973650131561
39.71295022964476,0.002240092600852
39.75890970230101,0.0023253996419762
39.77318453788756,0.002230993616641
39.79906105995177,0.0022132435672671
39.80906009674071,0.0021221614375319
39.84506773948668,0.001943053435493
39.895072937011705,0.001881169945765
39.89949846267699,0.0018972756360086
39.94403719902034,0.0017757148724781
39.95328021049498,0.0035304245994106
39.98638367652892,0.0036223406189648
39.99339556694029,0.0036388538597417
40.038388729095445,0.0037111463359178
40.07876276969908,0.0043626468527615
40.08977007865904,0.0044147222198913
40.125260591506944,0.004495026487559
40.13306093215941,0.0044973699873221
40.1745352745056,0.0041770119117021
40.216722965240464,0.0040559962446513
40.22367501258849,0.0040884436800893
40.26063179969786,0.0040680922117153
40.26996588706969,0.0037734062367664
40.31101584434508,0.0033407818323234
40.35225200653075,0.0032409250115429
40.36690735816954,0.0032453033271243
40.40588307380675,0.0022482527078484
40.41164088249205,0.0019630469246379
40.441563367843614,0.0030872581641877
40.456431865692124,0.0036670968295489
40.5054142475128,0.0037773165497445
40.557121038436875,0.0038963445556653
40.5947127342224,0.003859423115905
40.606957674026475,0.0038923945816142
40.642843723297105,0.0038577437756361
40.65246009826659,0.0032427847803704
40.68448877334593,0.002917700715489
40.70009422302245,0.0024185671970672
40.7369451522827,0.0024800371449363
40.78131008148192,0.0030447130550884
40.78786134719847,0.0040163906882221
40.827477455139146,0.0047676630656219
40.82963323593141,0.0053143518948725
40.873617887496934,0.0057318291647911
40.91821408271788,0.0061898831233605
40.93125534057616,0.0066026267697394
40.963450908660874,0.0070430069493483
40.96880936622618,0.0069823993039338
41.010044336318956,0.0068275162370324
41.05865025520323,0.0069349732791174
41.06846213340758,0.0068433846083581
41.10722422599791,0.0068863943166242
41.11562514305113,0.0067394845919523
41.155778169631944,0.0066708027125429
41.16973447799678,0.0065255761177131
41.211486816406236,0.0066026182357462
41.21634650230406,0.0065764266487551
41.261341810226426,0.0065312208045558
41.266521930694566,0.0064114015900166
41.3097743988037,0.0061994612108989
41.35942077636717,0.0061250669570513
41.39985108375548,0.0057849040578966
41.4056258201599,0.0057189564183302
41.44141888618468,0.0053220439233639
41.4563329219818,0.004775822682586
41.49798035621642,0.0046523740316955
41.539970397949205,0.0039713995873728
41.550221681594834,0.0036110297838874
41.5834662914276,0.0030818510192797
41.58627152442931,0.0027327382272192
41.63165426254271,0.002003138466356
41.672843933105455,0.0018264589011824
41.68110108375548,0.0018808404336021
41.71605205535887,0.001887628712037
41.72516036033629,0.0019099739102653
41.7622570991516,0.0019608642289976
41.80530166625975,0.002054189454364
41.81617975234984,0.0020842523613997
41.85305833816527,0.0020503731177525
41.86282110214232,0.0021527147742821
41.899427413940415,0.0022428829295423
41.94583344459532,0.0021563761233377
41.95832490921019,0.0021691162007696
41.99362015724181,0.0031515097409636
41.99536752700804,0.0034525736125077
42.04211354255675,0.0034084225824742
42.09062480926512,0.0033929635265677
42.100835800170884,0.0044290704585427
42.13575935363768,0.0043642093753459
42.1414005756378,0.0043582274372677
42.17686772346495,0.004336738477317
42.18207669258116,0.0043083470428461
42.22391533851622,0.0032249775820638
42.279241085052476,0.0033208368898975
42.321520090103135,0.0023027300913791
42.32713627815245,0.0031007347743095
42.36452388763426,0.0031542262212665
42.372054576873765,0.0032407163727788
42.41959357261656,0.0032926528284767
42.460568666458116,0.0033121550817875
42.46369314193724,0.0032484791195527
42.50162315368651,0.0032333532548607
42.51928901672362,0.0031995429161671
42.54562687873839,0.0018764614277837
42.59795999526976,0.0017438558727885
42.634224176406846,0.0016443743899711
42.64095807075499,0.0016234414672904
42.680634975433335,0.0016168334602851
42.7247483730316,0.001628673973447
42.730755567550645,0.0016135193084023
42.770163297653184,0.0016011797078792
42.78202819824217,0.0016318192355807
42.81925535202025,0.0017161056109922
42.86076450347899,0.001758912689509
42.873941421508775,0.0017637752852481
42.909301757812486,0.0017786634873154
42.915012359619126,0.0017470840426615
42.95026898384093,0.0018918031716844
42.99336767196654,0.0019182164918672
43.00532436370848,0.0018972756360086
43.040294170379624,0.0020018441037568
43.053305387496934,0.0020276299454463
43.092898368835435,0.0019498563072134
43.137141227722154,0.0019248144171748
43.14988327026366,0.0019498563072134
43.184710979461656,0.001829479728729
43.196562290191636,0.0018720420801298
43.22571182250975,0.0017669989522878
43.2346532344818,0.001693398374203
43.278824567794786,0.0015346965616209
43.32619118690489,0.0015143685573209
43.33275246620177,0.0028044790429757
43.365614414215074,0.0028361654653626
43.37238287925719,0.0029613858047779
43.41275620460509,0.0040384122725664
43.46831011772154,0.0040826649582187
43.50653839111327,0.0041565925191007
43.514903068542466,0.0041883548575515
43.54757165908812,0.0035286685265626
43.55886554718016,0.0034723785081045
43.60192728042601,0.0034370344415909
43.64293813705443,0.0021034128594006
43.647620677947984,0.0020061179484971
43.69146966934203,0.0020337067305143
43.69978833198546,0.0019592256114945
43.73747253417967,0.0020118396286214
43.78162479400633,0.0018788321569901
43.783142089843736,0.0019315064963234
43.828425407409654,0.0020138271841711
43.838803768157945,0.0019362848639917
43.880437612533555,0.0021779304103797
43.93036746978758,0.0021224003882828
43.940048456192,0.0022234544886829
43.96865892410277,0.0021874562311326
43.97819137573241,0.0022590038580579
44.017102956771836,0.0022748124050224
44.034435033798204,0.002260126022349
44.06046628952025,0.0023129113798408
44.077791213989244,0.0022857344535322
44.115425348281846,0.0021582044685908
44.16139888763426,0.0021534475421031
44.165012359619126,0.0020992834164577
44.2015025615692,0.0021394030265008
44.21230602264403,0.0021172436975653
44.24575281143187,0.0020964094688911
44.299906015396104,0.0021002762963543
44.351079702377305,0.0020823049671253
44.3820822238922,0.0021324649884638
44.43170523643492,0.0021369522261932
44.475864410400376,0.0022311704040228
44.47817158699037,0.0021645134206419
44.52487492561339,0.0022004260873274
44.576402664184556,0.0022335682777783
44.62086534500121,0.0022423050385279
44.62802147865294,0.0022235305133179
44.671509027481065,0.0022267971172443
44.67775416374205,0.0021882546151466
44.70997834205626,0.0022311451495402
44.75849366188048,0.0022147196909193
44.773403167724595,0.0022429834171288
44.80136966705321,0.0022384318375439
44.80732369422911,0.0022652559440049
44.841481208801255,0.0022618705046583
44.85905528068541,0.0036044388544563
44.89869379997252,0.0037144547787252
44.94886445999144,0.0045160242981024
44.984601020812974,0.0055493406142358
45.00974893569945,0.0059910846917632
45.030069351196275,0.0063663515533207
45.07486867904662,0.0068308248439457
45.083347797393785,0.0071362975587394
45.12051439285277,0.0070166363287676
45.131658077239976,0.0073595413273924
45.16748666763304,0.0074064549761397
45.210115194320665,0.0073806958603401
45.221226215362535,0.0073251531798104
45.2551412582397,0.0073064063122826
45.26621651649474,0.0071738145042209
45.31095504760741,0.0070406384384699
45.354221343994126,0.0069635955032878
45.3633313179016,0.0067002507278508
45.398647308349595,0.0068557652068326
45.411815166473374,0.0064946768955741
45.442831277847276,0.0064254916830415
45.48165941238402,0.0066530747264119
45.500005483627305,0.0066240379642769
45.52552032470702,0.0063149872399083
45.532200574874864,0.0066154749882926
45.57427358627318,0.0065243153220361
45.61431598663329,0.0061772351860377
45.62716960906981,0.005602816711209
45.662406682968125,0.0051781205162697
45.67205238342284,0.0046688406095945
45.714212179183946,0.0041412187048122
45.75485205650328,0.0038399122895226
45.762095451354966,0.0031222846395976
45.801258802413926,0.0026320773368628
45.8084201812744,0.0019937494300122
45.84663438796996,0.0020424156063321
45.8912785053253,0.0020640133890985
45.90356850624083,0.0021144208112372
45.932200908660874,0.0020705821395928
45.94202852249144,0.0020844686262368
45.97704386711119,0.0020873860085269
46.02522993087767,0.0020600784962245
46.064599275588975,0.0020218136067175
46.069954395294175,0.0020579439545083
46.1130700111389,0.0020000136849918
46.15724158287047,0.0020643409582784
46.16827583312987,0.0020737364440532
46.20093536376952,0.0020334019370411
46.20993661880492,0.0020334850670645
46.245472669601426,0.0020097940361976
46.25778174400328,0.0020009431837725
46.30074477195738,0.0019145117216595
46.358727455139146,0.0035400515121091
46.38813805580138,0.0035481757385846
46.40209650993346,0.00351070640987
46.43604469299315,0.0035131611971712
46.47996068000792,0.0035040071802221
46.48950576782225,0.0035000008064085
46.52240729331969,0.0035152135584556
46.53191161155699,0.0020204475445423
46.57321929931639,0.001846097489006
46.62265229225157,0.0019120084171801
46.62769746780394,0.0018508528089324
46.66115236282347,0.0018420335793138
46.66870307922362,0.0018543809109583
46.7041606903076,0.0017813858199681
46.72798848152159,0.0017784100352123
46.77257466316222,0.0018384511337688
46.77865076065062,0.0018122122174891
46.818110466003404,0.001902613902952
46.82536411285399,0.0019475141713627
46.873057365417466,0.0019550798287959
46.91647434234618,0.0019791696101567
46.92738819122313,0.00202960203786
46.968965530395494,0.0022250504605276
47.01014924049376,0.0021895417178583
47.01563405990599,0.0021494142276705
47.05411267280574,0.0021186537302787
47.10159635543822,0.0020814930151206
47.11037731170653,0.0020312671021615
47.14469027519225,0.0020282690022517
47.15452361106871,0.0018453953476395
47.195047616958604,0.0016462237338245
47.23580908775328,0.0016219483279318
47.2518217563629,0.0015763894572569
47.28555011749266,0.0015841625224544
47.29139065742491,0.001524455559016
47.328310728073106,0.001574994817641
47.36954021453856,0.0016109680118584
47.38266205787657,0.0016988797710279
47.425205469131456,0.001836795340761
47.46609449386595,0.0019410514685879
47.51062130928038,0.0020021818442373
47.52057766914366,0.0020624020838844
47.553409576416,0.0020915928212759
47.57290077209471,0.0020682132542017
47.60692524909972,0.002187739562036
47.646033525466905,0.0020974305740931
47.65526342391966,0.002049053595056
47.69515156745909,0.0020681860098611
47.697151422500596,0.002069847258397
47.739478111267076,0.0019947665915131
47.78814768791197,0.0019861608543982
47.7935032844543,0.0019179521027481
47.82932877540587,0.0019548492497376
47.83724117279051,0.0020407320273079
47.87659049034117,0.0021337065215591
47.88953375816344,0.0021293712196233
47.923846960067735,0.0022321551059776
47.96195077896117,0.0023092786154712
47.974158287048326,0.0023239210815332
48.01017928123473,0.0024322044227391
48.02357459068297,0.0025969917475869
48.061722755432115,0.0026171351611381
48.101867675781236,0.0025392433759539
48.10986137390135,0.0025765377870524
48.147267580032334,0.0025293048335367
48.14945459365843,0.0025085685347773
48.1932280063629,0.0024693127820499
48.23784542083739,0.0024831251583982
48.24511909484862,0.0034598121987683
48.292461872100816,0.0060241090207583
48.328448772430406,0.0065021511632375
48.33946847915648,0.0071092664359773
48.384872198104844,0.0073724614493056
48.43223047256468,0.0076153923841265
48.44172930717467,0.0079653900223525
48.46859741210936,0.0081156106020868
48.47509908676146,0.0077133912857941
48.517243862152085,0.0072820112070705
48.567648649215684,0.0071798285313422
48.60352754592894,0.0070884465353306
48.61846899986266,0.0070650375427577
48.6564266681671,0.007193666778156
48.70127415657042,0.0072547929291265
48.70750498771666,0.0070253439621003
48.74687266349791,0.0068498450546242
48.749928474426255,0.0067885338417257
48.80060577392577,0.0065048543498243
48.80474019050597,0.0066594574998328
48.842903852462754,0.0065764180807629
48.88397407531737,0.0067302229452798
48.89944982528685,0.0065366882179162
48.92972874641417,0.0063430492398879
48.93124628067015,0.0063475869449057
48.98066759109496,0.0064036982180762
49.02091622352599,0.0062630667550235
49.03308463096617,0.0059984255754693
49.06844282150267,0.0061293891342906
49.07516026496886,0.0060456864047531
49.1102635860443,0.0058465724060901
49.12790489196776,0.0059220199893938
49.17153334617613,0.0055614813977174
49.21668386459346,0.0054552914146271
49.22580528259276,0.0051021751946067
49.26286959648131,0.0048845571073827
49.274663925170884,0.0044132669557992
49.30564880371092,0.0039835402579764
49.31537556648253,0.0033965487310321
49.35268926620482,0.0031841315099303
49.36999845504759,0.0027533415642726
49.40987157821654,0.0020887352685598
49.45238089561461,0.0019382626835717
49.46696233749388,0.0019791411400649
49.500846385955796,0.0020004080705555
49.50605463981627,0.002000267227495
49.54940819740294,0.0020207264077438
49.59667634963988,0.0020404558982183
49.60962343215941,0.0021057153880727
49.64520168304442,0.002136240176882
49.64869117736815,0.0022320288864145
49.690525770187364,0.0022047494556815
49.6974000930786,0.0023196012061174
49.73451709747313,0.0022329627422334
49.74298548698424,0.0037232276082307
49.78840327262877,0.0036250773247799
49.82860326766966,0.0044736530408949
49.83436775207518,0.0044478465317278
49.87901711463927,0.0044429285052989
49.88239288330077,0.0044064949431167
49.92104005813597,0.0043415561608998
49.9334897994995,0.0043594038010697
49.98150205612178,0.0032513398796227
50.02032446861266,0.0031710093510209
50.02505707740785,0.0020611449381258
50.06519460678099,0.0018489033880148
50.07411956787108,0.0018471654528997
50.11433029174803,0.0017565405012378
50.15822148323058,0.0017445342839688
50.15934324264525,0.00171443025553
50.20385408401488,0.0017949355509199
50.212192773818956,0.0018400135701287
50.24709367752074,0.0018538034920089
50.288080692291246,0.0018200926522454
50.290878057479844,0.0019372158541535
50.33639287948607,0.0020473479528972
50.34128117561339,0.0021071598759896
50.380434751510606,0.0021331782979234
50.43130707740785,0.0020933969983129
50.43975925445555,0.0020243202989312
50.47530126571654,0.0018847010888691
50.487609863281236,0.001943865239763
50.51958250999449,0.0019041828740039
50.526638269424424,0.0018468298736509
50.57547569274901,0.0016594510081388
50.61547017097472,0.0016514864141992
50.621834516525254,0.0016311630334425
50.66222167015077,0.0016346827140684
50.67840290069579,0.0016406351044927
50.70884013175963,0.0016593151823962
50.71544981002806,0.001754711088659
50.75786733627318,0.0017768885634033
50.800476074218736,0.001849025287035
50.80705952644347,0.0019769477117664
50.84488201141356,0.0020578618125339
50.851881265640245,0.0021156729331616
50.903399944305406,0.002182220884462
50.94947218894957,0.0022312209121305
50.95396304130553,0.0021050195403677
50.99766659736632,0.0021740202755243
51.006206989288316,0.0020856306655309
51.037993431091294,0.0020595313887373
51.052509069442735,0.0019619558803516
51.08584666252135,0.0018935298945863
51.13938713073729,0.0022200814470757
51.176781892776475,0.0022573320465071
51.1836400032043,0.0022347284289476
51.22270536422728,0.0022138799481487
51.226684808731065,0.0021088705804532
51.27134966850279,0.0021320421739482
51.31141114234923,0.0022149740955714
51.323048353195176,0.0020301849657036
51.35707855224608,0.0018769718375513
51.36980247497554,0.001937971954343
51.413431167602525,0.0019225883170341
51.45482254028319,0.0019842023813286
51.461476087570176,0.0020449797069306
51.50105023384093,0.0020716975718229
51.509646177291856,0.0020746329130536
51.54536104202269,0.0020374713194903
51.54952836036681,0.0020286856699732
51.59593009948729,0.0019840887873751
51.63818836212157,0.0019678918732663
51.6408290863037,0.0019057505533499
51.68304920196532,0.0019292297049936
51.69013333320616,0.0019085277985486
51.72549772262572,0.0018584784587028
51.775624275207505,0.0018377460709878
51.783609390258775,0.0017535225536757
51.81772089004515,0.0016957592076024
51.82404422760008,0.0018051403555909
51.86023139953612,0.0018707774918494
51.91051125526427,0.0018058269462318
51.91771912574767,0.0031939201078397
51.95612168312071,0.0035997773266225
51.96556639671324,0.0052761080096105
51.99609851837157,0.0062911633058572
52.04160332679747,0.0067689917543748
52.05532407760619,0.0071608900616647
52.091186523437486,0.0075506118617782
52.09752511978148,0.0078191519904141
52.13703680038451,0.0081156106020868
52.177800893783555,0.0077857445279204
52.193041086196885,0.0072061023889467
52.22264766693114,0.0066662145386355
52.2347011566162,0.0065230974729798
52.26939034461974,0.0061571988568279
52.316615819931016,0.0063199730608832
52.32439613342284,0.0061737497226435
52.359245061874375,0.0061743976932374
52.372441768646226,0.0060025573309651
52.407112598419175,0.0059417019132512
52.465384960174546,0.0059281918674433
52.49617552757262,0.006146381600072
52.504015445709214,0.0058556535794446
52.54993414878844,0.0059055173916975
52.554676771163926,0.0058667955968252
52.59345340728758,0.005695547936405
52.64407873153685,0.005810871871983
52.6490225791931,0.0059181938105798
52.69147062301634,0.0056874397002024
52.73488616943358,0.0055156905302811
52.750687360763536,0.0055707441031505
52.799423456192,0.0052025033989472
52.804563283920274,0.0055864504123479
52.84404158592223,0.0050119232440576
52.85441160202025,0.0045694347074449
52.88606452941893,0.0040021820375423
52.933312416076646,0.0034832660702008
52.98002386093141,0.0029729507578088
52.99376225471495,0.0029747697022689
53.020964622497544,0.0018016096528386
53.06580567359923,0.0018147910841966
53.072024583816514,0.0019852528172713
53.114892244338975,0.0018807505566291
53.11938095092772,0.0018858069500344
53.15755677223204,0.0018838936994102
53.209132909774766,0.0019505786207036
53.22788548469542,0.0019999009891172
53.24607968330382,0.0019904117564311
53.26004767417906,0.0020703644242103
53.30113267898558,0.0021383756135081
53.34735560417174,0.0021179621334168
53.35176491737364,0.0020783504828113
53.38969326019286,0.0020928855240082
53.394720077514634,0.0019741240086342
53.428533077239976,0.0019258972451763
53.44455265998839,0.001950751936144
53.486601352691636,0.0018883449890848
53.53469681739806,0.0043219272843328
53.575442075729356,0.0043384921619357
53.5813431739807,0.0043294042896459
53.621980667114244,0.0043519524424901
53.62958955764769,0.0043602309437576
53.66910433769225,0.0044137776294207
53.71813106536864,0.004475088667944
53.72499585151671,0.0034724758695159
53.7619798183441,0.0024939030944068
53.77731895446776,0.0025493642027779
53.80838036537169,0.002507535083309
53.85699319839476,0.002473234500112
53.90002846717833,0.0024205001228656
53.90894818305968,0.0024225943236847
53.95299100875853,0.0024244543169134
53.986599206924424,0.002090002778765
53.99254179000853,0.0019680064021111
54.02476358413695,0.0019233794634713
54.03735327720641,0.0019589379934112
54.08550858497618,0.0019519069791348
54.12965321540831,0.0018888223562135
54.13602566719054,0.001946009092267
54.16875028610228,0.0018841030558257
54.17936468124388,0.0019245509344594
54.21355032920836,0.0018992940780709
54.25826597213744,0.0019447636277832
54.272137165069566,0.0019001838856053
54.30558371543883,0.0032361751517743
54.31231784820555,0.0042291613957459
54.34970188140868,0.0053145427409144
54.389348745346055,0.0061478207235242
54.40083026885985,0.0064756228423839
54.43551588058473,0.0069235319504491
54.44599246978758,0.0070990427082858
54.48473119735716,0.0073409820635384
54.535180091857896,0.007043654950357
54.57256078720091,0.0067620624370991
54.583307981491075,0.0064154869505216
54.623081684112535,0.0062084890766797
54.63866782188414,0.0060356309150969
54.677960157394395,0.0058440178926776
54.71765637397765,0.0060850940672307
54.72924160957335,0.0057476442787929
54.76176285743712,0.0057543557226614
54.77163672447203,0.0057799246185028
54.81166911125182,0.0056823847699196
54.861283302307115,0.0057085228231855
54.898020744323716,0.0054891372597594
54.90836215019225,0.0056947267483018
54.93713712692259,0.0056100429325263
54.98617482185362,0.0058224286361508
54.991190195083604,0.0059014609156227
55.04193472862245,0.0058572795766464
55.08119726181029,0.0057095098011907
55.08703017234801,0.0058387607579383
55.13338756561278,0.0055519393711828
55.17169570922853,0.0051799483186687
55.214851140975966,0.0047800681945901
55.22225475311275,0.0042661848984552
55.26211261749266,0.0039133718443065
55.273471832275405,0.0033964989624412
55.304544210433946,0.0031531542059796
55.31529808044432,0.00230331728536
55.35124826431273,0.0020845767502416
55.35915064811705,0.0021404562711315
55.408325672149644,0.0023458094916381
55.44694328308104,0.0023811413008343
55.45059037208556,0.0022520589792197
55.49259233474733,0.0022057204070807
55.50095105171205,0.0022284159808008
55.53924894332884,0.002147316009455
55.57743906974791,0.0021381911537914
55.58709669113155,0.0021599269194367
55.6225333213806,0.0020653233540946
55.63267827033995,0.0018933811011888
55.66857314109801,0.0019549068970519
55.71402502059935,0.0020687308285027
55.757170677185044,0.0020887082919008
55.765529394149766,0.002109191183072
55.80774855613707,0.0020196386235162
55.84891891479491,0.0020470176644536
55.86280965805052,0.0020107190138023
55.89341545104979,0.0019850541287807
55.907927036285386,0.0020081672855214
55.939036369323716,0.0019692943926515
55.981468677520766,0.0018877481104186
55.987217664718585,0.0018220728977948
56.0295910835266,0.0018420947571341
56.04019141197203,0.0018585694127135
56.0779266357422,0.0018295413263361
56.1261155605316,0.0018019536535045
56.16145372390746,0.0017469872843586
56.175776481628404,0.0017130164277786
56.21548032760619,0.0018433178871498
56.263013839721665,0.0018776921798463
56.30190968513487,0.0019118610619013
56.305332422256456,0.0019558866414347
56.347879171371446,0.0019258094709928
56.39462065696715,0.0018806307139835
56.403713464736924,0.0019536959462451
56.43397665023802,0.0018598423018204
56.44273161888118,0.0020335681936896
56.48540806770323,0.0038274485402326
56.52870011329652,0.0038275368697052
56.53956341743468,0.0038392225512604
56.56824707984923,0.0038322301217548
56.57912969589232,0.0038197560571924
56.61617827415465,0.0038125801381387
56.66149759292601,0.0038406019039138
56.673782587051406,0.0038693091063744
56.70147848129271,0.0020272964445347
56.715892553329454,0.0018852690445468
56.74913406372069,0.0018397685698187
56.797339439392076,0.0017961280532969
56.847316503524766,0.0017255359131648
56.85450887680052,0.0017442435686299
56.886152982711806,0.0017873225260323
56.92401361465453,0.0017473097911982
56.92949748039244,0.001767381571431
56.96954774856566,0.0018251627302632
56.990241765975966,0.0018244525321633
57.03546881675719,0.0019056027141669
57.08508372306822,0.0018873600380613
57.09065413475035,0.0019782298807866
57.12370681762691,0.0020105788930338
57.12836980819701,0.0020356729359488
57.16543531417845,0.0020473204308954
57.17548346519469,0.0021126879304341
57.214759111404405,0.0021111404666921
57.25970673561095,0.002106865708773
57.264940738677964,0.0021005713863624
57.30743098258971,0.0020892747285932
57.31254887580867,0.0021171904703968
57.349253892898545,0.0020743341331011
57.36123728752135,0.0020690576508269
57.40069961547853,0.0020488885949675
57.444625616073594,0.0019488157054573
57.48975777626036,0.0019792550179752
57.492619991302476,0.001940180403877
57.53202128410341,0.0018957009482111
57.577568292617784,0.0019690654781301
57.58535218238826,0.0019296093567736
57.62283420562743,0.0019178933446609
57.6297163963318,0.0018700846168518
57.67232227325435,0.0018999169871019
57.72100806236266,0.0019826683138276
57.722678899765,0.0019650551573111
57.76157450675963,0.0019998446387984
57.76996827125548,0.0019605481112141
57.80871725082396,0.0019330520167039
57.818269252777085,0.0019310105013538
57.86257076263426,0.0019570098618804
57.904771566391005,0.0019007768592149
57.91649127006532,0.0018275383413709
57.95152616500853,0.0017978213012573
57.958496332168565,0.0017530404856106
57.99768400192259,0.0019466170527531
58.00284409523009,0.0019344215394796
58.047031164169326,0.0020474580372049
58.08881306648253,0.0020113354292162
58.142817258834825,0.0020994176168565
58.14575839042659,0.0021232232350304
58.183756113052354,0.002167297060741
58.19711875915526,0.0022428578069422
58.235190629959064,0.0021140743487103
58.27327966690059,0.0020078866780603
58.283794879913316,0.002055560504571
58.32318520545955,0.0020605434233734
58.36497235298155,0.0020704732847632
58.36961388587953,0.0020608442026957
58.40604209899901,0.002102073020511
58.412805080413804,0.0021456622184798
58.4503502845764,0.0021433237359124
58.502144336700425,0.0021714788044715
58.50622010231017,0.0021319364572171
58.544388055801406,0.002249204879559
58.55303668975829,0.0022051583294308
58.58278656005861,0.0021059829605846
58.629660367965684,0.0020562730893995
58.63333129882811,0.0020266570810569
58.66887545585631,0.0018953739622754
58.68389797210692,0.0018857471903351
58.71773028373717,0.0019232329794255
58.76410555839534,0.0017877638324598
58.811937332153306,0.0018152257126507
58.81892323493956,0.0018498478953152
58.85404014587401,0.0018923392198194
58.86557269096373,0.0020438772621986
58.89925575256346,0.0020101304409373
58.911149024963365,0.0020714799736738
58.946960687637315,0.0021050463079943
58.95343613624571,0.0021430608255994
58.99660706520079,0.0021638104409656
59.039781570434556,0.0023441515142127
59.050515890121446,0.0023225386251617
59.08236718177797,0.0023004043109924
59.10032200813292,0.0023977897082118
59.144876480102525,0.0023543930074536
59.15754890441893,0.0023368327938714
59.18546414375304,0.0023570958393175
59.195002079009996,0.0023242847491764
59.232960462570205,0.0023240665554192
59.28129386901851,0.0022919627920484
59.291621208190904,0.002284871488857
59.32501578330992,0.0023972021500159
59.33545327186583,0.0023331889748683
59.37435173988341,0.0023553501167282
59.423830747604356,0.003751946812556
59.46467757225035,0.0037571544443314
59.47029542922972,0.0037733315730684
59.510230064392076,0.003715804626468
59.54896998405455,0.0036467734327103
59.558776140213,0.003637134646575
59.59366726875304,0.0036422743814225
59.59899115562435,0.0023886309310419
59.63682103157045,0.0021376376791375
59.684321165084825,0.002157943371254
59.685586214065566,0.0021322800174296
59.73310089111327,0.0021602399447642
59.738750934600844,0.0021944258232309
59.778129100799546,0.0021650860501358
59.78082466125487,0.0022449169264705
59.82287216186525,0.0022387590550232
59.864534139633165,0.0022003236561716
59.87319087982176,0.0022301347357259
59.90952610969539,0.0023547519690205
59.91301798820491,0.0023101324627269
59.95693254470824,0.0023776127875276
