timestamp,emg
0.0,0.0028773492164837
0.0287273771904625,0.00280810103924
0.057454754380925,0.0027983737654974
0.0861821315713875,0.0028089173472848
0.11490950876185,0.0028082652287379
0.1436368859523125,0.0028177891945236
0.172364263142775,0.0028609740068778
0.2010916403332375,0.0029149780210786
0.2298190175237,0.0029127063321302
0.2585463947141626,0.0028456152859973
0.2872737719046251,0.0028364101115468
0.3160011490950876,0.002839812459147
0.3447285262855501,0.0028489561467651
0.3734559034760126,0.0028399373048325
0.4021832806664751,0.0027737360974818
0.4309106578569376,0.0027758698467959
0.4596380350474001,0.0028073407867862
0.4883654122378627,0.0027594622587638
0.5170927894283252,0.0026382135677531
0.5458201666187876,0.0027177666467671
0.5745475438092502,0.0026548797118691
0.6032749209997127,0.002681697047658
0.6320022981901752,0.0027489299576159
0.6607296753806376,0.0028427075446737
0.6894570525711002,0.00294359530226
0.7181844297615627,0.0028681771647306
0.7469118069520252,0.0029179202821379
0.7756391841424878,0.0031184597664603
0.8043665613329503,0.0029927320521048
0.8330939385234127,0.0029550377904358
0.8618213157138752,0.0028832007661328
0.8905486929043378,0.0027435787431644
0.9192760700948004,0.0026498976475177
0.9480034472852628,0.0027498677754997
0.9767308244757252,0.0027611518376949
1.0054582016661875,0.0026336581420896
1.0341855788566503,0.0026644518929238
1.062912956047113,0.0027949171826479
1.0916403332375753,0.0029123438457015
1.1203677104280378,0.0029163027959422
1.1490950876185004,0.0028922550437855
1.1778224648089628,0.0030069371209952
1.2065498419994254,0.0029808276107323
1.235277219189888,0.0028558135186621
1.2640045963803503,0.0029525219162927
1.292731973570813,0.0030231035369593
1.3214593507612753,0.0029054793020007
1.350186727951738,0.0030129931663588
1.3789141051422005,0.002800458985333
1.4076414823326628,0.0031774287745603
1.4363688595231254,0.0032008246554801
1.465096236713588,0.002973219201412
1.4938236139040504,0.003065035070827
1.522550991094513,0.0030740232712783
1.5512783682849756,0.0031227829590179
1.580005745475438,0.0029604523102214
1.6087331226659003,0.0027664589675545
1.637460499856363,0.0030230851487296
1.6661878770468257,0.0029769939672825
1.694915254237288,0.0026324515729107
1.7236426314277504,0.0027904039374798
1.752370008618213,0.0027869392974514
1.7810973858086756,0.0028298978177789
1.809824762999138,0.0028884677198435
1.8385521401896008,0.0027963750164501
1.8672795173800631,0.0027933984379118
1.8960068945705255,0.0028453577297995
1.924734271760988,0.0028044200570582
1.9534616489514507,0.0028494915796898
1.982189026141913,0.0029014378044615
2.010916403332375,0.0028597061086126
2.0396437805228382,0.0028596711773536
2.0683711577133006,0.002786061311269
2.097098534903763,0.0028774341675768
2.125825912094226,0.0028883396369176
2.154553289284688,0.0028059286251566
2.1832806664751505,0.0027185668141784
2.2120080436656133,0.0027681644813455
2.2407354208560757,0.0028370059565967
2.269462798046538,0.0028347324984503
2.298190175237001,0.0028308968335953
2.3269175524274632,0.0028058405323515
2.3556449296179256,0.0027285901983842
2.3843723068083884,0.002738921501693
2.4130996839988508,0.0027254003495948
2.441827061189313,0.0026551197040069
2.470554438379776,0.0030020843557919
2.4992818155702383,0.0029803570757444
2.5280091927607007,0.0017894359427971
2.5567365699511635,0.004807979139039
2.585463947141626,0.0044585539052678
2.614191324332088,0.0039911297267573
2.6429187015225506,0.0043007916206399
2.6716460787130134,0.004250840447734
2.700373455903476,0.0041798832048593
2.729100833093938,0.0041635603770663
2.757828210284401,0.0039033744892316
2.7865555874748633,0.0030160665222096
2.8152829646653257,0.0029640919890749
2.8440103418557885,0.0029477025290593
2.872737719046251,0.0028058957018154
2.9014650962367132,0.0028877216839393
2.930192473427176,0.0029556647820647
2.9589198506176384,0.0029207551742886
2.9876472278081008,0.0029576893196353
3.0163746049985636,0.0028555193693828
3.045101982189026,0.0029096689581306
3.0738293593794883,0.0029599152434429
3.102556736569951,0.0029254426606295
3.1312841137604135,0.002868843211651
3.160011490950876,0.0028682435953395
3.1887388681413387,0.0029400655836667
3.217466245331801,0.0029849941351574
3.2461936225222634,0.0027408630114332
3.274920999712726,0.0029571696189095
3.303648376903189,0.0030334992710247
3.332375754093651,0.0029904319199367
3.3611031312841133,0.0030328471417938
3.389830508474576,0.0030831059196937
3.4185578856650385,0.0030146755878849
3.447285262855501,0.0029663450438357
3.4760126400459637,0.0031271578614164
3.504740017236426,0.0028293125583934
3.5334673944268884,0.002780863399612
3.562194771617351,0.0028426323837113
3.5909221488078136,0.0028304424754123
3.619649525998276,0.0027776634673392
3.648376903188739,0.0026138600497919
3.677104280379201,0.002595616423441
3.705831657569663,0.0026157713487366
3.7345590347601263,0.0026177254019841
3.7632864119505887,0.0026303330500625
3.792013789141051,0.0025629233604232
3.820741166331514,0.0025794001798023
3.849468543521976,0.002836257273231
3.8781959207124386,0.0027560163695258
3.9069232979029014,0.0026964893097689
3.935650675093364,0.002696568173719
3.964378052283826,0.0027151115321624
3.993105429474289,0.0026994695716804
4.021832806664751,0.0027045687824315
4.050560183855214,0.0027435878191702
4.0792875610456765,0.0027317637973669
4.108014938236138,0.0027211573705098
4.136742315426601,0.0028073939710431
4.165469692617064,0.002848944891767
4.194197069807526,0.002783338367274
4.222924446997989,0.0027916403281491
4.251651824188452,0.00275861007441
4.2803792013789135,0.0026847965187556
4.309106578569376,0.0028752581408025
4.337833955759839,0.0028275246351344
4.366561332950301,0.0029332348958402
4.395288710140764,0.0029845754876708
4.424016087331227,0.0028892517206613
4.452743464521689,0.0029847807176674
4.481470841712151,0.0029018916197314
4.510198218902614,0.0029261741549734
4.538925596093076,0.0030650144490351
4.567652973283539,0.0030691183247487
4.596380350474002,0.0029929953072996
4.625107727664464,0.0029149919691819
4.6538351048549265,0.0029124032465066
4.682562482045389,0.0030141631689548
4.711289859235851,0.0029797352693312
4.740017236426314,0.0027730951949346
4.768744613616777,0.0029047085608628
4.797471990807239,0.0028035666526777
4.8261993679977016,0.0027610148224174
4.854926745188164,0.0028165439319788
4.883654122378626,0.002923113979579
4.912381499569089,0.0028812647752139
4.941108876759552,0.0027999158162287
4.969836253950014,0.0027766581673626
4.998563631140477,0.0027265567724207
5.0272910083309394,0.0028066803000646
5.056018385521401,0.0028759570149282
5.084745762711864,0.0027747972520009
5.113473139902327,0.0028497287919475
5.142200517092789,0.0027785936299274
5.170927894283252,0.0028095968401336
5.199655271473714,0.0029434524294808
5.2283826486641765,0.0028156986159495
5.257110025854639,0.0030365690941441
5.285837403045101,0.0030598636776858
5.314564780235564,0.0030229215002817
5.343292157426027,0.0030124349329082
5.372019534616489,0.0030538375366923
5.4007469118069515,0.0031189715957167
5.429474288997414,0.0031131218050287
5.458201666187876,0.003097085598458
5.486929043378339,0.0030597875648592
5.515656420568802,0.002970744339862
5.544383797759264,0.0030085888735496
5.573111174949727,0.0030783084318177
5.601838552140189,0.003012130067579
5.630565929330651,0.0030699022461534
5.659293306521114,0.0029213400292276
5.688020683711577,0.0027360498639057
5.716748060902039,0.0029604777406883
5.745475438092502,0.0029962888727448
5.7742028152829645,0.002807371746183
5.8029301924734265,0.0029417409529333
5.831657569663889,0.0030610205071163
5.860384946854352,0.0028419031048447
5.889112324044814,0.002809044364853
5.917839701235277,0.0028056011078382
5.94656707842574,0.0028062372089168
5.9752944556162015,0.0028508901978349
6.004021832806664,0.0028662467736093
6.032749209997127,0.0028573664822983
6.061476587187589,0.0029008490310397
6.090203964378052,0.0028663197051753
6.118931341568515,0.0029046207053256
6.147658718758977,0.0030290914791234
6.176386095949439,0.0029064315183251
6.205113473139902,0.0028406994554983
6.233840850330364,0.0028258954289783
6.262568227520827,0.0028345330040729
6.29129560471129,0.0028466347441992
6.320022981901752,0.002882791613503
6.3487503590922145,0.0029185462457561
6.377477736282677,0.0030067868162358
6.406205113473139,0.0031140501802026
6.434932490663602,0.0031424950193233
6.463659867854065,0.0030690775765557
6.492387245044527,0.0029697215808593
6.52111462223499,0.0029968000036692
6.549841999425452,0.0030236742118569
6.578569376615914,0.0029397740233314
6.607296753806377,0.0029070779305409
6.636024130996839,0.0029259114935843
6.664751508187302,0.0029453918480472
6.693478885377765,0.003010941750959
6.722206262568227,0.0030618105111766
6.750933639758689,0.0030115098901973
6.779661016949152,0.0029505973493666
6.808388394139614,0.0029320011591134
6.837115771330077,0.0029669658319109
6.86584314852054,0.0030527783626749
6.894570525711002,0.0030316125537419
6.9232979029014645,0.002793691299891
6.952025280091927,0.0028413908904278
6.980752657282389,0.0029045377110757
7.009480034472852,0.0028977134809676
7.038207411663315,0.0028456344095844
7.066934788853777,0.0028305393902675
7.09566216604424,0.0028012418814744
7.124389543234702,0.002858135340414
7.153116920425164,0.0029316225666537
7.181844297615627,0.0029274847727434
7.21057167480609,0.0031188189717804
7.239299051996552,0.0030113236938439
7.268026429187015,0.0030030681670568
7.296753806377477,0.0030755966026178
7.325481183567939,0.0030476532499696
7.354208560758402,0.0030133340498846
7.382935937948865,0.0030605439975479
7.411663315139327,0.002962014042873
7.44039069232979,0.0027017998243534
7.469118069520253,0.0028365861504354
7.497845446710715,0.0029951819635805
7.526572823901177,0.0025641301778197
7.55530020109164,0.0027955753259304
7.584027578282102,0.0028570660908963
7.612754955472565,0.0027333249693897
7.641482332663028,0.0027915131124539
7.67020970985349,0.0029632858258946
7.698937087043952,0.0027664263572251
7.727664464234415,0.0024973179341183
7.756391841424877,0.0033310626964721
7.78511921861534,0.0029884900080427
7.813846595805803,0.002848767072139
7.842573972996265,0.0030111686318488
7.871301350186728,0.003155134180186
7.90002872737719,0.0032352373297547
7.928756104567652,0.0032058376521897
7.957483481758115,0.0031323082437082
7.986210858948578,0.0031831709470153
8.01493823613904,0.0031556502957812
8.043665613329502,0.0031233456938602
8.072392990519965,0.0031122359272589
8.101120367710427,0.0031016317079659
8.12984774490089,0.0030573425393624
8.158575122091353,0.0029638266721883
8.187302499281815,0.0028445691988311
8.216029876472277,0.0028992325350458
8.24475725366274,0.003041227027471
8.273484630853202,0.0028968971201865
8.302212008043664,0.0029572926654793
8.330939385234128,0.0030110590420324
8.35966676242459,0.0030244162155959
8.388394139615052,0.0030146802537483
8.417121516805516,0.0029509140238976
8.445848893995977,0.0030758403160371
8.47457627118644,0.0029321308402767
8.503303648376903,0.0037243186879554
8.532031025567365,0.0045518650709599
8.560758402757827,0.0038877699942674
8.58948577994829,0.0127377969286016
8.618213157138753,0.0139774893477036
8.646940534329215,0.0137728995899293
8.675667911519678,0.0149541733077351
8.70439528871014,0.0150962556134835
8.733122665900602,0.0152136425749985
8.761850043091066,0.0149673424556057
8.790577420281528,0.0138795995185184
8.81930479747199,0.0102704813373218
8.848032174662453,0.0057657693894717
8.876759551852915,0.0049643447859061
8.905486929043377,0.0044182742706661
8.93421430623384,0.0043284255043704
8.962941683424303,0.00460174221876
8.991669060614765,0.0042627903349145
9.020396437805228,0.0039722755674024
9.04912381499569,0.0034885934312565
9.077851192186152,0.0035169988461849
9.106578569376616,0.0035034955171355
9.135305946567078,0.003653364270285
9.16403332375754,0.0036278727558647
9.192760700948003,0.0032370928684633
9.221488078138464,0.0034628800658598
9.250215455328927,0.0036075311355807
9.278942832519393,0.0035726940497536
9.307670209709851,0.0034765333512042
9.336397586900317,0.0033269557260646
9.36512496409078,0.0032778470696155
9.39385234128124,0.0033846787955282
9.422579718471702,0.0030620507069078
9.451307095662166,0.0029679961636328
9.480034472852628,0.0030922844905257
9.50876185004309,0.0031039475631203
9.537489227233554,0.0030204980759044
9.566216604424016,0.0029343348728144
9.594943981614476,0.0028933740128245
9.62367135880494,0.002871094010269
9.652398735995405,0.0029675166018614
9.681126113185863,0.0030204784936169
9.709853490376329,0.0028622910096668
9.73858086756679,0.0028520213099249
9.767308244757253,0.0029191682835653
9.796035621947716,0.0028957635497287
9.824762999138178,0.002888742921063
9.85349037632864,0.0028791660988184
9.882217753519104,0.0028257683154295
9.910945130709566,0.002831170967176
9.939672507900028,0.0029007728527887
9.968399885090491,0.0029704318230088
9.997127262280951,0.0029767376939909
10.025854639471415,0.0029878445205301
10.05458201666188,0.0030638801331976
10.08330939385234,0.0031120705915828
10.112036771042805,0.0030446481089526
10.140764148233266,0.0030131148276908
10.169491525423728,0.0032847565205825
10.19821890261419,0.0032511913599228
10.226946279804654,0.0032637386529857
10.255673656995116,0.0034182459375466
10.284401034185578,0.0033833321318847
10.31312841137604,0.0032731230468382
10.341855788566503,0.0033573639571438
10.370583165756964,0.0035365045807039
10.399310542947427,0.0028920828792814
10.428037920137893,0.0030956215880131
10.456765297328351,0.0028850789243827
10.485492674518817,0.0029193625317107
10.51422005170928,0.0029434309423454
10.54294742889974,0.002936151305301
10.571674806090202,0.0030125593606166
10.600402183280666,0.0030053476653543
10.629129560471128,0.0029879159924261
10.65785693766159,0.0030620720850291
10.686584314852054,0.0031367294526627
10.715311692042516,0.0031817610981793
10.744039069232976,0.0032113564883863
10.77276644642344,0.0031995969505449
10.801493823613905,0.003140070393219
10.830221200804363,0.0031424551570264
10.858948577994829,0.0032243449895237
10.88767595518529,0.003268661174333
10.916403332375753,0.0030604049049906
10.945130709566216,0.0031528171931155
10.973858086756678,0.0031523714663259
11.00258546394714,0.0030701194897025
11.031312841137604,0.0030851692436352
11.060040218328066,0.003175344877883
11.088767595518528,0.0031346250205095
11.117494972708991,0.0032440038218003
11.146222349899451,0.0032749355992206
11.174949727089915,0.0032075994882826
11.20367710428038,0.0031859708017049
11.23240448147084,0.0031721033088204
11.261131858661305,0.0030890804252424
11.289859235851766,0.0030393811318284
11.318586613042228,0.0030624054731531
11.34731399023269,0.0031058087245325
11.376041367423154,0.0030771497812525
11.404768744613616,0.0030010030332652
11.433496121804078,0.0031684281131063
11.462223498994542,0.0030723470374113
11.490950876185003,0.0030654001295328
11.519678253375464,0.0030776851128776
11.548405630565927,0.0030008404590076
11.577133007756393,0.0029445331954886
11.605860384946851,0.0029220407794969
11.634587762137317,0.0029435300732298
11.66331513932778,0.0030581109978792
11.69204251651824,0.0028863171354518
11.720769893708704,0.0029492211892031
11.749497270899166,0.0030499547130884
11.778224648089628,0.0030472631949835
11.806952025280092,0.0030899837810245
11.835679402470554,0.0031270938472171
11.864406779661016,0.0031180758385944
11.89313415685148,0.0030571488285043
11.92186153404194,0.0030787510139802
11.950588911232405,0.003032138103852
11.979316288422869,0.0030464221552606
12.008043665613329,0.0030517492071663
12.03677104280379,0.0029854807362884
12.065498419994254,0.0029559765288743
12.094225797184716,0.0028902420622846
12.122953174375178,0.0029416551071817
12.151680551565642,0.0029159366181518
12.180407928756104,0.0026301658302403
12.209135305946566,0.0032552505968573
12.23786268313703,0.0030363299300714
12.266590060327491,0.0029951710071391
12.295317437517951,0.0030556671535261
12.324044814708415,0.0032120046093627
12.35277219189888,0.0031188057608979
12.38149956908934,0.0032006955419172
12.410226946279804,0.0032317567262574
12.438954323470266,0.0031438298133476
12.467681700660728,0.0030985715188057
12.496409077851192,0.003050326553375
12.525136455041654,0.0029910216573364
12.553863832232116,0.0030662794050904
12.58259120942258,0.002926296966338
12.611318586613042,0.0027861322023661
12.640045963803503,0.0046899191139173
12.668773340993967,0.0027695281872905
12.697500718184427,0.009629667799268634
12.726228095374893,0.0178763098173755
12.754955472565356,0.0138897766528992
12.783682849755817,0.0157663408217632
12.81241022694628,0.0149193533468694
12.841137604136742,0.0153196119838056
12.869864981327204,0.0160033464239961
12.898592358517666,0.0153712917182541
12.92731973570813,0.0143588077201509
12.956047112898592,0.0122909572479733
12.984774490089054,0.0087015281062714
13.013501867279516,0.0065647184606509
13.04222924446998,0.0054350735087663
13.07095662166044,0.0052705204238248
13.099683998850905,0.0051009780805641
13.128411376041369,0.0046867953901185
13.157138753231829,0.0045894357841483
13.185866130422292,0.0043851555327663
13.214593507612754,0.0040649744836878
13.243320884803216,0.0040312741960478
13.272048261993678,0.0040798395350823
13.300775639184142,0.0047035897089316
13.329503016374604,0.0031583149276095
13.358230393565066,0.003901291231053
13.38695777075553,0.0037425955779667
13.415685147945991,0.0038004463116869
13.444412525136451,0.0037553238453873
13.473139902326915,0.0040111074816822
13.50186727951738,0.0035968163151623
13.53059465670784,0.0035788429345588
13.559322033898304,0.0033683408604954
13.588049411088766,0.0034271413289239
13.616776788279228,0.0020908809525208
13.645504165469692,0.0042258544705736
13.674231542660154,0.0031666152736989
13.702958919850616,0.0037115151985666
13.73168629704108,0.0032965456726651
13.76041367423154,0.0033136734525199
13.789141051422003,0.0033320865225553
13.817868428612467,0.0032853382874779
13.846595805802927,0.0033769886901662
13.875323182993393,0.0031737739660503
13.904050560183856,0.0030940168639428
13.932777937374317,0.0031166886948841
13.96150531456478,0.0031704223433605
13.990232691755242,0.003231606586135
14.018960068945704,0.0032090501110591
14.047687446136166,0.0031631491449726
14.07641482332663,0.0031702950168034
14.105142200517092,0.0031225239872767
14.133869577707554,0.0031285370542808
14.162596954898016,0.003228008688556
14.19132433208848,0.0031033687085463
14.22005170927894,0.0030535560944489
14.248779086469405,0.0031933626962529
14.277506463659869,0.0032632586203602
14.306233840850329,0.0031832786744092
14.334961218040792,0.0032649090772231
14.363688595231254,0.003307991380927
14.392415972421716,0.0033024743863941
14.42114334961218,0.0033030061651328
14.449870726802642,0.0032789549040737
14.478598103993104,0.0033856786435531
14.507325481183567,0.0034821749588026
14.53605285837403,0.0032659894266278
14.564780235564491,0.0034067465021682
14.593507612754957,0.0034475261842559
14.622234989945415,0.0034446129570701
14.65096236713588,0.0034926895250061
14.679689744326344,0.0036986328748975
14.708417121516804,0.0036113207980036
14.737144498707266,0.0034884594661312
14.76587187589773,0.003272263205352
14.794599253088192,0.0033637439788163
14.823326630278654,0.0034883187511628
14.852054007469118,0.0031875779652306
14.88078138465958,0.003201996049145
14.90950876185004,0.0034694771377336
14.938236139040503,0.0032033126600783
14.966963516230969,0.0028683119457827
14.995690893421427,0.0031914075791011
15.024418270611893,0.0032339303429041
15.053145647802356,0.0031370043476864
15.081873024992817,0.0032486032770948
15.11060040218328,0.003200927949352
15.139327779373742,0.0030799621541306
15.168055156564204,0.0031822980750014
15.196782533754668,0.0031859913129626
15.22550991094513,0.0032046523260068
15.254237288135592,0.0033232205299411
15.282964665326055,0.00325407205666
15.311692042516515,0.0034097889002649
15.34041941970698,0.003441176076631
15.369146796897445,0.0032524244648329
15.397874174087905,0.0033899479626931
15.426601551278369,0.0033451494138602
15.45532892846883,0.0032437937496039
15.484056305659292,0.003208875481196
15.512783682849754,0.0032327488077506
15.541511060040218,0.0032611991187028
15.57023843723068,0.003251740986918
15.598965814421142,0.003265699495778
15.627693191611606,0.0033103146720043
15.656420568802067,0.0033356944534111
15.68514794599253,0.0034203348481714
15.713875323182991,0.0032834629133559
15.742602700373457,0.0031829013596244
15.771330077563915,0.0032543938037454
15.80005745475438,0.0033272331292664
15.828784831944844,0.0033090109068581
15.857512209135304,0.003316449270281
15.886239586325768,0.0033100089335244
15.91496696351623,0.0032649015109541
15.943694340706692,0.0034880851890674
15.972421717897156,0.0032981043433922
16.001149095087616,0.0033461710270134
16.02987647227808,0.0033142221925151
16.058603849468543,0.0032342286602441
16.087331226659003,0.0032296920590709
16.116058603849467,0.0033395645580779
16.14478598103993,0.0034441039564895
16.17351335823039,0.0033841106686954
16.202240735420855,0.0033023683148944
16.23096811261132,0.0033099778993883
16.25969548980178,0.0033580806603206
16.288422866992242,0.0032244457217224
16.317150244182706,0.0032053946993991
16.345877621373166,0.0032076948396631
16.37460499856363,0.0029832454261622
16.403332375754093,0.0031714416367413
16.432059752944554,0.0033606007333368
16.460787130135017,0.0032647527660113
16.48951450732548,0.0034279619579481
16.51824188451594,0.002673084644004
16.546969261706405,0.0040428348972661
16.57569663889687,0.0036770567637023
16.60442401608733,0.0039116005604784
16.633151393277792,0.0067382328542396
16.661878770468256,0.0124030583111513
16.690606147658716,0.0189268160965009
16.71933352484918,0.0199251602433445
16.748060902039644,0.0198438578496428
16.776788279230104,0.0203026592790672
16.805515656420567,0.0199312011082225
16.83424303361103,0.0222968229402047
16.86297041080149,0.0201821615468551
16.891697787991955,0.0127558258743814
16.92042516518242,0.0114498278872762
16.94915254237288,0.0075083555326483
16.977879919563343,0.0058228408143543
17.006607296753806,0.0059679336684817
17.035334673944266,0.0056927800342119
17.06406205113473,0.0051629288068229
17.092789428325194,0.0048586730975738
17.121516805515654,0.0049476805540337
17.150244182706118,0.0046684383978543
17.17897155989658,0.0046458883312628
17.20769893708704,0.0044989577019877
17.236426314277505,0.0042843555912023
17.26515369146797,0.0041886221650795
17.29388106865843,0.0041945990373015
17.322608445848893,0.0042737784659954
17.351335823039356,0.0042406846428967
17.380063200229817,0.003761478520272
17.40879057742028,0.0039764087074408
17.437517954610744,0.003815498991251
17.466245331801204,0.0037993700858504
17.494972708991668,0.0036975663831936
17.52370008618213,0.0035441376796206
17.55242746337259,0.0035331125717796
17.581154840563055,0.0037009596307171
17.60988221775352,0.0038213309157356
17.63860959494398,0.0038477545158442
17.667336972134443,0.0039291013420036
17.696064349324907,0.0037315076832321
17.724791726515367,0.003631261181362
17.75351910370583,0.0043316748911456
17.782246480896294,0.0037532294849919
17.810973858086754,0.003496567413661
17.839701235277218,0.0035233442335426
17.86842861246768,0.0035796763014868
17.897155989658142,0.0035371722358569
17.925883366848606,0.0034592049004357
17.95461074403907,0.0034655193167485
17.98333812122953,0.0034797628559268
18.012065498419993,0.0035039958126311
18.040792875610457,0.0035967534383374
18.069520252800917,0.0036729424160636
18.09824762999138,0.0035895417358681
18.126975007181844,0.0034702189477917
18.155702384372304,0.0036166846347131
18.184429761562768,0.0035497903398789
18.213157138753232,0.003544871329441
18.241884515943692,0.0035991391514886
18.270611893134156,0.0036089769036159
18.29933927032462,0.0035180831325476
18.32806664751508,0.0035122437495683
18.356794024705543,0.0035189484100297
18.385521401896007,0.0034906479348944
18.414248779086467,0.0034805571049426
18.44297615627693,0.0032801141244444
18.47170353346739,0.0033159337123751
18.500430910657855,0.0032777453949804
18.52915828784832,0.0032096966085897
18.557885665038786,0.0033017483367401
18.58661304222924,0.0034681041450784
18.615340419419702,0.0033829252583962
18.64406779661017,0.0033196376509903
18.67279517380063,0.0034476972018999
18.701522550991093,0.0036607832303059
18.730249928181557,0.0035588238718478
18.758977305372017,0.0037450204324899
18.78770468256248,0.0037743202365147
18.816432059752945,0.0036810110050615
18.845159436943405,0.0037931090780055
18.87388681413387,0.0039912311897705
18.902614191324332,0.0039851305335413
18.931341568514792,0.0037061270825689
18.960068945705256,0.0036776802865045
18.98879632289572,0.0036238758781485
19.01752370008618,0.003740573964987
19.046251077276644,0.0035649324465262
19.074978454467107,0.0033514269685742
19.103705831657567,0.0038850519596699
19.13243320884803,0.0038215442352451
19.161160586038495,0.0038573088788534
19.189887963228955,0.0037798664910466
19.21861534041942,0.003856892533119
19.24734271760988,0.0037820984398117
19.276070094800343,0.0039030817905661
19.30479747199081,0.0043979828846032
19.33352484918127,0.0036585399691726
19.36225222637173,0.0037801800832181
19.390979603562194,0.0040669213790503
19.419706980752657,0.004094326419153
19.44843435794312,0.0041227669557863
19.47716173513358,0.0042089719247316
19.505889112324045,0.0041693003855775
19.534616489514505,0.0039801268322218
19.56334386670497,0.0040099550007194
19.592071243895433,0.0040002742488397
19.620798621085893,0.0040465760139103
19.649525998276356,0.0040800501183545
19.67825337546682,0.0038908663671711
19.70698075265728,0.0037541658358589
19.735708129847744,0.0037728657453831
19.764435507038208,0.0037963789634458
19.793162884228668,0.0037356135433811
19.82189026141913,0.0035820426010623
19.850617638609595,0.0034439038852552
19.879345015800055,0.0033747448869885
19.90807239299052,0.0034279754787721
19.936799770180983,0.0034476561037079
19.965527147371443,0.0035962500212158
19.994254524561907,0.0037542411727089
20.02298190175237,0.0035187650135104
20.05170927894283,0.003472560045553
20.080436656133298,0.0039159214651868
20.10916403332376,0.0030746046002933
20.137891410514214,0.0032017559794834
20.16661878770468,0.0035902354575543
20.195346164895145,0.0035173758860477
20.224073542085605,0.0035222073087691
20.25280091927607,0.0036061472147467
20.281528296466533,0.0035778019272491
20.310255673656993,0.0036321551964123
20.338983050847457,0.0037184917891632
20.36771042803792,0.0036967815081011
20.39643780522838,0.0036491782477332
20.425165182418844,0.0036032959990592
20.453892559609308,0.0035797179906224
20.482619936799768,0.0035299296270579
20.511347313990232,0.0033586132147308
20.540074691180696,0.0035543314131432
20.568802068371156,0.0033902475333647
20.59752944556162,0.0030703164796222
20.62625682275208,0.0057910921738705
20.654984199942543,0.0113983099191579
20.683711577133007,0.0152282881266028
20.712438954323467,0.0164274425911727
20.74116633151393,0.0168586077510669
20.76989370870439,0.0169604740109558
20.798621085894855,0.0170975954647665
20.82734846308532,0.0162067728072661
20.856075840275786,0.0153983661964235
20.88480321746624,0.0187826795290505
20.913530594656702,0.0057146779627321
20.94225797184717,0.0064563613112584
20.97098534903763,0.0051020807531349
20.999712726228093,0.0052007354711135
21.028440103418557,0.0048815337918804
21.057167480609017,0.004715562850211
21.08589485779948,0.0044895784911203
21.114622234989945,0.0041200661808806
21.143349612180405,0.0038748139155605
21.17207698937087,0.0040214986265654
21.200804366561332,0.0040816300388959
21.229531743751792,0.003873082726503
21.258259120942256,0.0037770103835441
21.28698649813272,0.0040051357656452
21.31571387532318,0.0039809551495937
21.344441252513644,0.0039201329408469
21.373168629704107,0.0040090415807182
21.401896006894567,0.0038141143557365
21.43062338408503,0.0036945243798953
21.459350761275495,0.0037983444804225
21.488078138465955,0.0039376276693916
21.51680551565642,0.0038085063774353
21.54553289284688,0.0040585493045171
21.574260270037342,0.0041454230798354
21.60298764722781,0.0040929174355783
21.63171502441827,0.0041816041350357
21.66044240160873,0.0038378343648979
21.689169778799194,0.0039542890158958
21.717897155989657,0.0039965054093678
21.74662453318012,0.0039612417613353
21.77535191037058,0.0038189732260191
21.804079287561045,0.0037847131533488
21.832806664751505,0.0039503705489933
21.86153404194197,0.0038969039254564
21.890261419132433,0.0036789981142854
21.918988796322893,0.0035695853487006
21.947716173513356,0.003599672493906
21.97644355070382,0.003688723748496
22.00517092789428,0.0036841500168729
22.033898305084744,0.0035037925692249
22.062625682275208,0.003339383349582
22.091353059465668,0.0035006043735793
22.12008043665613,0.0035599320323925
22.148807813846595,0.0035397635949407
22.177535191037055,0.0037689049444548
22.20626256822752,0.0036961935114862
22.234989945417983,0.0036830562397178
22.263717322608443,0.0038600980227743
22.292444699798907,0.0038903905108379
22.32117207698937,0.0038424995589654
22.34989945417983,0.0035983427785249
22.378626831370298,0.0037010998331762
22.40735420856076,0.0039108697292834
22.436081585751214,0.0036269573015879
22.46480896294168,0.0036367734449238
22.493536340132145,0.0034447938392317
22.522263717322605,0.0033550097385207
22.55099109451307,0.0038708007470257
22.579718471703533,0.0030063260481648
22.608445848893993,0.0033720320508439
22.637173226084457,0.0042262775650494
22.66590060327492,0.0029432649037544
22.69462798046538,0.0032040994065618
22.723355357655844,0.0034184004611594
22.752082734846308,0.0033734047320348
22.780810112036768,0.0033853979320135
22.809537489227232,0.0036378898840215
22.838264866417695,0.0031579812128025
22.866992243608156,0.0030696747778659
22.89571962079862,0.003255644791109
22.924446997989083,0.0031525133916746
22.953174375179543,0.0033596583124989
22.981901752370007,0.0033045903302215
23.01062912956047,0.0032955151372687
23.03935650675093,0.0032354857976164
23.06808388394139,0.0032328359440118
23.096811261131855,0.003313471644979
23.12553863832232,0.0032669548207496
23.154266015512786,0.0033728691839445
23.18299339270325,0.0034794989302806
23.211720769893702,0.0035379064333874
23.24044814708417,0.0036188740610945
23.269175524274633,0.0035427934676438
23.297902901465093,0.0035558536428931
23.326630278655557,0.0038298984436755
23.35535765584602,0.0034315054362375
23.38408503303648,0.0035045828057006
23.412812410226945,0.0036287439488873
23.44153978741741,0.0031486520482333
23.47026716460787,0.0032703548513925
23.498994541798332,0.0031819147084117
23.527721918988796,0.0032876477855312
23.556449296179256,0.0027024293983193
23.58517667336972,0.0030451331394061
23.613904050560183,0.003259924898097
23.642631427750644,0.003379505524721
23.671358804941107,0.0035190406626297
23.70008618213157,0.0035908851669425
23.72881355932203,0.0036582505119146
23.757540936512495,0.0036614837188376
23.78626831370296,0.0034812540251287
23.81499569089342,0.0035352100192535
23.84372306808388,0.0036232466810274
23.872450445274342,0.0036159997128656
23.90117782246481,0.0035038542714897
23.92990519965527,0.0034973209636118
23.958632576845737,0.0036018329166918
23.987359954036194,0.0036234572764981
24.016087331226657,0.0035204297099074
24.04481470841712,0.0033502548363154
24.07354208560758,0.0032774535314595
24.102269462798045,0.0033021027419566
24.13099683998851,0.003332395421175
24.15972421717897,0.0032712633255096
24.188451594369432,0.0031221769341856
24.217178971559896,0.0030146010732402
24.245906348750356,0.0031421550324507
24.27463372594082,0.0035269903498811
24.303361103131284,0.0034416738199005
24.332088480321744,0.0035194484286257
24.360815857512208,0.0035322964695078
24.38954323470267,0.003524054387768
24.41827061189313,0.0036874308613385
24.446997989083595,0.0036959762709104
24.47572536627406,0.0034878283757544
24.50445274346452,0.0028616709189479
24.533180120654983,0.003761338592122
24.561907497845446,0.0034717051392481
24.590634875035907,0.0032468415223819
24.61936225222637,0.003399401697176
24.64808962941683,0.0034024761315868
24.676817006607298,0.0032033221319354
24.70554438379776,0.0032536269719097
24.73427176098822,0.0042206300522571
24.76299913817868,0.004670487674412
24.791726515369145,0.0057284392219085
24.82045389255961,0.0112557730404902
24.84918126975007,0.0129522949188687
24.877908646940533,0.0153801171138316
24.906636024130997,0.0175586150238992
24.935363401321457,0.0182950738262638
24.96409077851192,0.0184887758818578
24.992818155702384,0.0182835007485433
25.021545532892844,0.0172538080405069
25.050272910083308,0.015362300889865
25.07900028727377,0.0132394588681923
25.10772766446423,0.0113763494716872
25.136455041654695,0.0088965366146446
25.16518241884516,0.0062380373826358
25.19390979603562,0.0048782985847621
25.222637173226083,0.0045788062338945
25.251364550416547,0.004437310266598
25.280091927607007,0.0040668730836671
25.30881930479747,0.0039556222041643
25.337546681987934,0.0039911452563456
25.36627405917839,0.0036623947513149
25.395001436368855,0.004107310565054
25.42372881355932,0.0043096237333446
25.452456190749785,0.0042374134452019
25.48118356794025,0.0041133475213449
25.50991094513071,0.004042516188961
25.53863832232117,0.004053072390375
25.567365699511633,0.0041216465420941
25.596093076702097,0.0040766759333907
25.624820453892557,0.0039649934851183
25.65354783108302,0.0038156604553088
25.682275208273484,0.0035909157900404
25.711002585463945,0.0036340911003878
25.73972996265441,0.0035140264710824
25.768457339844872,0.0038110040089294
25.797184717035332,0.0037185858110508
25.825912094225796,0.0036756028370339
25.85463947141626,0.0039360190136138
25.88336684860672,0.0038757572960068
25.912094225797183,0.0037836373875931
25.940821602987647,0.0038992543367757
25.969548980178107,0.0039690489272654
25.99827635736857,0.0039494070877377
26.027003734559035,0.003947945830737
26.055731111749495,0.0038355749552681
26.08445848893996,0.003905698964055
26.113185866130426,0.0039265240951652
26.14191324332088,0.0039591882569053
26.170640620511342,0.003907613119559
26.19936799770181,0.003744820431508
26.22809537489227,0.0036464508703189
26.256822752082737,0.0036582056334864
26.285550129273197,0.0036987648507737
26.314277506463657,0.0035325395311884
26.34300488365412,0.0035563645180249
26.371732260844585,0.0034631974923805
26.400459638035045,0.0034576465638275
26.42918701522551,0.0035875209829429
26.457914392415972,0.0035079534997663
26.486641769606432,0.0035007153943214
26.515369146796896,0.0035512665650541
26.544096523987356,0.003489435174676
26.57282390117782,0.0034664446917332
26.601551278368284,0.0034589501250925
26.630278655558744,0.0032962671728692
26.659006032749208,0.0033136898946589
26.68773340993967,0.0034909524818708
26.71646078713013,0.0034157229016209
26.745188164320595,0.0033832145958896
26.77391554151106,0.0035486890429375
26.80264291870152,0.0034608451642713
26.831370295891983,0.003431242773621
26.860097673082446,0.0035662638911428
26.888825050272903,0.003764185721563
26.91755242746337,0.0038295013260537
26.94627980465383,0.003871418644565
26.975007181844298,0.0039452713664395
27.00373455903476,0.0040209331873031
27.03246193622522,0.0040556150009604
27.06118931341568,0.0039206842112046
27.089916690606145,0.0037739696785603
27.11864406779661,0.0043931248190579
27.14737144498707,0.0040150842495647
27.176098822177533,0.0034182856696259
27.204826199367997,0.0040433528158074
27.233553576558457,0.0038783588386459
27.26228095374892,0.0039026795040729
27.291008330939384,0.0037308144219371
27.319735708129844,0.0035767682852993
27.348463085320308,0.0036235484228386
27.37719046251077,0.0036111985191609
27.40591783970123,0.0036980962763813
27.434645216891695,0.0036891078312817
27.46337259408216,0.0033807834068225
27.49209997127262,0.0037255181329186
27.520827348463083,0.0036454364008195
27.549554725653547,0.0037367428106148
27.578282102844007,0.0035330296458669
27.60700948003447,0.0034720531895964
27.635736857224934,0.0034610212177321
27.66446423441539,0.0033406960315178
27.693191611605855,0.0033259173098723
27.72191898879632,0.0032810491351776
27.750646365986785,0.0032069247833608
27.77937374317725,0.0032711215872238
27.80810112036771,0.0032853371003624
27.83682849755817,0.0031551510847455
27.865555874748633,0.0031594220577823
27.894283251939097,0.0032688953770743
27.923010629129557,0.0033085419874033
27.95173800632002,0.0033187081261033
27.980465383510484,0.0033527943047774
28.009192760700945,0.0032818704282197
28.03792013789141,0.0032559707349197
28.066647515081872,0.0034153623233505
28.095374892272332,0.0034622961591076
28.124102269462796,0.0033652794917175
28.15282964665326,0.0033794972696797
28.18155702384372,0.0032809254462398
28.210284401034183,0.0032741162274169
28.239011778224647,0.0034665962860879
28.267739155415107,0.0032413590999822
28.29646653260557,0.0032327544368804
28.325193909796035,0.0033404804112478
28.353921286986495,0.0033196843770201
28.38264866417696,0.0032729663059654
28.411376041367426,0.0032776206137848
28.44010341855788,0.0033188310175026
28.468830795748342,0.0033102232862707
28.49755817293881,0.0033010872035469
28.52628555012927,0.0032859328850517
28.555012927319737,0.0032122568693391
28.583740304510197,0.0031870240725505
28.612467681700657,0.0032418210659922
28.64119505889112,0.0032888055595358
28.669922436081585,0.0032780757725303
28.698649813272045,0.0044963701096263
28.72737719046251,0.0115139897042822
28.756104567652972,0.0130472162258974
28.784831944843432,0.013507250728291
28.813559322033896,0.0146677252337471
28.84228669922436,0.0147438184319067
28.87101407641482,0.0154153050922546
28.899741453605284,0.014685901227718
28.928468830795747,0.0131211747369648
28.957196207986208,0.0119847818683448
28.98592358517667,0.0082485357458301
29.014650962367135,0.0060015984870644
29.043378339557595,0.0058667743316187
29.07210571674806,0.0055198623277172
29.10083309393852,0.0052654502565318
29.129560471128983,0.0051442264213446
29.158287848319446,0.0047258951278777
29.18701522550991,0.0042489242328379
29.21574260270037,0.0042281626482979
29.24446997989083,0.0041920881677127
29.273197357081298,0.0038978659886786
29.30192473427176,0.0037043598462202
29.33065211146222,0.0037350793073147
29.359379488652685,0.0038720835637854
29.388106865843145,0.0036876181903465
29.41683424303361,0.0037394373064262
29.445561620224073,0.0038578989451305
29.474288997414533,0.0036881414870167
29.503016374604996,0.0036557335348426
29.53174375179546,0.0038120102032987
29.56047112898592,0.0039809900647037
29.589198506176384,0.0038599836962572
29.617925883366848,0.0038539545522988
29.646653260557308,0.0041176900714375
29.67538063774777,0.0042688003520951
29.704108014938235,0.0042867973983106
29.732835392128695,0.0043187221104656
29.76156276931916,0.0043387303622504
29.790290146509623,0.0040466932168732
29.819017523700083,0.0040082389446888
29.847744900890547,0.003912341120528
29.87647227808101,0.0034942664226918
29.90519965527147,0.0032398938557433
29.933927032461938,0.0034606031267018
29.9626544096524,0.0036185125457741
29.991381786842854,0.0035997426539718
30.02010916403332,0.0036219474621217
30.048836541223785,0.0035913934003571
30.07756391841425,0.0035116883610265
30.10629129560471,0.003457419161323
30.135018672795173,0.0034794583753414
30.163746049985633,0.0034048071216825
30.192473427176097,0.0032750123725375
30.22120080436656,0.0032416125076393
30.24992818155702,0.0033898797481091
30.278655558747484,0.0035013063895888
30.307382935937948,0.0035261083782502
30.336110313128408,0.0035968677331724
30.364837690318872,0.0037631082269435
30.393565067509336,0.0037906538464436
30.422292444699796,0.0034483802665594
30.45101982189026,0.0037277305049253
30.479747199080723,0.0037081702178903
30.508474576271183,0.0036773082923318
30.537201953461647,0.0035756512146253
30.56592933065211,0.0032779718969445
30.59465670784257,0.0035971050890624
30.623384085033035,0.0034938112410686
30.6521114622235,0.0034617233718484
30.68083883941396,0.0034947338209009
30.709566216604426,0.0034660460080331
30.73829359379489,0.0034943827213577
30.767020970985342,0.003538197776429
30.79574834817581,0.0034241929514771
30.824475725366273,0.0034780161713413
30.853203102556733,0.0037612778693316
30.881930479747197,0.0037004947453031
30.91065785693766,0.0036461046486442
30.93938523412812,0.0036890472313006
30.968112611318585,0.0036887039540722
30.99683998850905,0.0037489858032948
31.02556736569951,0.0036833914489195
31.054294742889972,0.0035694073869963
31.083022120080436,0.003529660160603
31.111749497270896,0.0035656815474787
31.14047687446136,0.0035921928665159
31.169204251651824,0.0036354537522683
31.197931628842284,0.0035352326017754
31.226659006032747,0.0033578247533085
31.25538638322321,0.0036251043577782
31.28411376041367,0.0035047305893988
31.312841137604135,0.0035883673750216
31.3415685147946,0.0037924866665705
31.37029589198506,0.0036951883199498
31.39902326917552,0.003557025423619
31.427750646365983,0.0035792170938865
31.456478023556446,0.0037369869306987
31.48520540074691,0.0037317723148956
31.513932777937377,0.0036650583875935
31.54266015512783,0.0037020060391764
31.571387532318298,0.0034839439960811
31.60011490950876,0.0035132101593491
31.62884228669922,0.0039355138926447
31.657569663889685,0.0036389485370504
31.68629704108015,0.0035624742751578
31.71502441827061,0.0036292603278252
31.743751795461073,0.0035062333848023
31.772479172651536,0.0034546114748341
31.801206549841996,0.0035746719057216
31.82993392703246,0.003431405253054
31.858661304222924,0.003311297760981
31.887388681413384,0.0034994496377251
31.916116058603848,0.0036306541939681
31.94484343579431,0.0035820593421396
31.97357081298477,0.0036095482427152
32.00229819017523,0.0037031691098182
32.031025567365695,0.0035083757745883
32.05975294455616,0.0036329334761045
32.08848032174662,0.0036725257085567
32.11720769893709,0.0034505882525253
32.14593507612755,0.0031437368959559
32.17466245331801,0.003282894965889
32.20338983050847,0.0035246139102002
32.232117207698934,0.0035224354014543
32.2608445848894,0.0034232177280871
32.28957196207986,0.003405828603081
32.318299339270325,0.0034374745896913
32.34702671646078,0.0035599357902359
32.375754093651246,0.0035432876465374
32.40448147084171,0.0032919186471853
32.43320884803217,0.0037026167239727
32.46193622522264,0.0035923164714481
32.4906636024131,0.0034787940025117
32.51939097960356,0.0034893494081574
32.54811835679402,0.0034963162789078
32.576845733984484,0.0033665223928243
32.60557311117495,0.0033737501680499
32.63430048836541,0.0033281671262128
32.663027865555875,0.0030317585229607
32.69175524274633,0.0029871864328429
32.720482619936796,0.0042644095435124
32.74920999712726,0.0063239999210273
32.77793737431772,0.0084442986450994
32.80666475150819,0.0125173500600864
32.83539212869865,0.0129816346819929
32.86411950588911,0.0133657775936941
32.89284688307957,0.0142488824640084
32.921574260270035,0.0146628035606505
32.9503016374605,0.0146927190547118
32.97902901465096,0.0141010365532087
33.007756391841426,0.0123736385920217
33.03648376903188,0.0101805269614217
33.065211146222346,0.0082380004916355
33.09393852341281,0.0068628200793895
33.12266590060327,0.0059000317979047
33.15139327779374,0.0051588504302808
33.1801206549842,0.0046580550841603
33.20884803217466,0.0043714410744355
33.23757540936512,0.0042503962455789
33.266302786555585,0.0042675636055535
33.29503016374605,0.004166929823324
33.32375754093651,0.0040399420485196
33.352484918126976,0.0040379488772557
33.38121229531743,0.004104532590498
33.409939672507896,0.0039909364009174
33.43866704969836,0.0041137860869152
33.46739442688882,0.0039039756152594
33.49612180407929,0.0038742322393798
33.52484918126975,0.003739899491417
33.55357655846021,0.003596913879541
33.58230393565067,0.0035948672732049
33.611031312841135,0.0035035642635896
33.6397586900316,0.0035372865415947
33.66848606722206,0.0034731614039886
33.697213444412526,0.0036333370043003
33.72594082160298,0.003675008798124
33.754668198793446,0.003655427341466
33.78339557598391,0.0035680228872902
33.812122953174374,0.0037003538043477
33.84085033036484,0.0037178038187264
33.8695777075553,0.003760218993344
33.89830508474576,0.0037627060439456
33.92703246193622,0.0036996140771067
33.955759839126685,0.0037881051968432
33.98448721631715,0.0036577942027394
34.01321459350761,0.0036591684422506
34.041941970698076,0.0034964888830008
34.07066934788853,0.0036385278051691
34.099396725078996,0.0039829816680956
34.12812410226946,0.0038037760506946
34.156851479459924,0.0036510729683744
34.18557885665039,0.0036262943497414
34.21430623384085,0.0037282495646634
34.24303361103131,0.003828658041267
34.27176098822177,0.0036840335945461
34.300488365412235,0.0040335606849089
34.3292157426027,0.0037012324177125
34.35794311979316,0.0038926949925667
34.386670496983626,0.0038875539529868
34.41539787417408,0.0036972325113706
34.44412525136455,0.0037102476471776
34.47285262855501,0.0039002083232914
34.501580005745474,0.0038852118035727
34.53030738293594,0.0037072650858957
34.5590347601264,0.0036098705647758
34.58776213731686,0.0036271836981835
34.61648951450732,0.0035720685487983
34.645216891697785,0.0035918103356998
34.67394426888825,0.0035410749836534
34.70267164607871,0.0033503290860092
34.73139902326918,0.003345928340245
34.76012640045963,0.003472566522747
34.7888537776501,0.0035763759377161
34.81758115484056,0.0036132146977718
34.846308532031024,0.0034961985213747
34.87503590922149,0.0034562576093382
34.90376328641195,0.0036095896811174
34.93249066360241,0.0036783153360658
34.96121804079287,0.0037279802315904
34.989945417983336,0.0032512485968125
35.0186727951738,0.0033415425707809
35.04740017236426,0.0035191657459725
35.07612754955473,0.0035197934503819
35.10485492674518,0.0034153489694226
35.13358230393565,0.0033307223414774
35.16230968112611,0.0033174113184316
35.191037058316574,0.0033604817657913
35.21976443550704,0.0035485559028807
35.2484918126975,0.0037531261286207
35.27721918988796,0.0037656599353093
35.30594656707842,0.003801936438181
35.334673944268886,0.0038478563117855
35.36340132145935,0.0037674259504708
35.39212869864981,0.0036671902146133
35.42085607584027,0.0037262545134926
35.44958345303073,0.0035939196498153
35.4783108302212,0.0034333376022442
35.50703820741166,0.0035012425832211
35.535765584602125,0.003529148141683
35.56449296179259,0.0034581237179671
35.593220338983045,0.00345102519821
35.62194771617351,0.0034719084962211
35.65067509336397,0.0034859976104516
35.679402470554436,0.0034818008085355
35.7081298477449,0.0033043656307229
35.73685722493536,0.0032277289677455
35.76558460212582,0.0035986347527877
35.794311979316284,0.0031504177774287
35.82303935650675,0.0031758099106207
35.85176673369721,0.0035607609070912
35.880494110887675,0.0034200910414193
35.90922148807814,0.0032158487291053
35.937948865268595,0.0035919418486943
35.96667624245906,0.0037219882315222
35.99540361964952,0.0036218777455248
36.024130996839986,0.0035500614952271
36.05285837403045,0.0035199121401997
36.08158575122091,0.0035359221156164
36.11031312841137,0.0036701451187902
36.139040505601834,0.0037489544492636
36.1677678827923,0.0037003344638619
36.19649525998276,0.0035858523106714
36.225222637173225,0.00357552621513
36.25395001436369,0.0035868527654876
36.282677391554145,0.0036116962069308
36.31140476874461,0.0035165353210271
36.34013214593507,0.0033893583978282
36.368859523125536,0.0034212935924826
36.397586900316,0.0033970413881014
36.426314277506464,0.0034207161688161
36.45504165469692,0.0035014504540825
36.483769031887384,0.003522501401097
36.51249640907785,0.003425409300944
36.54122378626831,0.003379387432035
36.569951163458775,0.0033993984650822
36.59867854064924,0.0033661466743135
36.627405917839695,0.0033450575235819
36.65613329503016,0.0033472419152521
36.68486067222062,0.0033424039364168
36.713588049411086,0.0035997125045752
36.74231542660155,0.0037850675588882
36.771042803792014,0.0031183949950844
36.79977018098247,0.0037210302294341
36.828497558172934,0.0044443368812292
36.8572249353634,0.0063443518077341
36.88595231255386,0.0070122547259317
36.914679689744325,0.0099397462505798
36.94340706693479,0.0133496998913874
36.972134444125246,0.0144100534468736
37.00086182131571,0.0147643425114144
37.02958919850617,0.0146803138025958
37.05831657569664,0.0142817143744973
37.0870439528871,0.0144859521308233
37.11577133007757,0.0141511948784276
37.14449870726802,0.0115426945410351
37.17322608445848,0.0079111461965104
37.20195346164895,0.0063774150260994
37.23068083883941,0.0058991910513057
37.259408216029875,0.0052530732490391
37.28813559322034,0.0045274661024294
37.3168629704108,0.0041082464491007
37.34559034760126,0.0040171204342941
37.37431772479172,0.0038861794130775
37.40304510198219,0.003817022557052
37.43177247917265,0.0039329084605676
37.460499856363114,0.0039454815198989
37.48922723355357,0.0039156767860726
37.517954610744034,0.003838996402918
37.5466819879345,0.00382704724712
37.57540936512496,0.0039006085973992
37.604136742315426,0.0037982523608748
37.63286411950589,0.0036340507667283
37.661591496696346,0.0036606774696288
37.69031887388681,0.0038339111631512
37.71904625107727,0.0040119963290306
37.74777362826774,0.0040576949617574
37.7765010054582,0.0039986814868023
37.805228382648664,0.0039597064655345
37.83395575983912,0.0040211218618827
37.862683137029585,0.0037951461092269
37.89141051422005,0.0039045573476981
37.92013789141051,0.0040016525817528
37.948865268600976,0.0038905361895698
37.97759264579144,0.0037350797583655
38.006320022981896,0.003620577655038
38.03504740017236,0.0035872836766392
38.06377477736282,0.0036150817888273
38.09250215455329,0.0036507723660949
38.12122953174375,0.0036427051416141
38.149956908934215,0.003593577285449
38.17868428612467,0.0035635265154502
38.207411663315135,0.003570147645302
38.2361390405056,0.0033626646511834
38.26486641769606,0.0032808025336366
38.293593794886526,0.0036721893470813
38.32232117207699,0.0034564734047206
38.351048549267446,0.0035036985284713
38.37977592645791,0.0036383849773569
38.408503303648374,0.0036839778466213
38.43723068083884,0.0036320835170627
38.4659580580293,0.0037294444164768
38.494685435219765,0.0038700495936082
38.52341281241022,0.0035401518612818
38.552140189600685,0.0037765422167145
38.58086756679115,0.0039463471166117
38.60959494398161,0.0039061219085526
38.63832232117208,0.0037976515118742
38.66704969836254,0.0038371281240581
38.69577707555299,0.0039351125561697
38.72450445274346,0.0038755478174672
38.75323182993392,0.003804756914972
38.78195920712439,0.0038191240152324
38.81068658431485,0.003863472589957
38.839413961505315,0.0038672746997816
38.86814133869577,0.0038153400251286
38.896868715886235,0.0037472340926294
38.9255960930767,0.0037002822087647
38.95432347026716,0.0036925569751363
38.983050847457626,0.0036913031978895
39.01177822464809,0.0036876037780094
39.04050560183855,0.0037044549297837
39.06923297902901,0.0036794117384741
39.097960356219474,0.003542026177316
39.12668773340994,0.0034500434854065
39.1554151106004,0.0034849821080359
39.184142487790865,0.0035632197567048
39.21286986498132,0.0036351170757504
39.241597242171785,0.0036192599923692
39.27032461936225,0.003326539508671
39.29905199655271,0.0036139268723349
39.32777937374318,0.0036828724320915
39.35650675093364,0.0036370348977797
39.3852341281241,0.0038465464794413
39.41396150531456,0.0039053090765123
39.442688882505024,0.0038246812103111
39.47141625969549,0.0038218068163053
39.50014363688595,0.0040334733009426
39.528871014076415,0.0040757453038509
39.55759839126687,0.0038941489682701
39.586325768457336,0.0043774625059753
39.6150531456478,0.0040363185082496
39.64378052283826,0.0039297731463611
39.67250790002873,0.0041736591886989
39.70123527721919,0.0041284056937814
39.72996265440965,0.0037270368754605
39.75869003160011,0.0038083947181579
39.787417408790574,0.0037155281920289
39.81614478598104,0.00365890597276
39.8448721631715,0.0038092485194066
39.873599540361965,0.0037538510882874
39.90232691755242,0.0037141685027541
39.931054294742886,0.0038845164765634
39.95978167193335,0.0040396088064664
39.98850904912381,0.0038219481487047
40.01723642631428,0.003859024070893
40.04596380350474,0.003959967533076
40.0746911806952,0.0034598688557134
40.10341855788566,0.0034459928217384
40.132145935076124,0.0035851499472568
40.16087331226659,0.0033938630233911
40.18960068945705,0.0033080054804223
40.21832806664752,0.0034122787286602
40.24705544383797,0.0034519513715494
40.27578282102843,0.0034624773995507
40.3045101982189,0.0034174488156558
40.33323757540936,0.003369949546562
40.36196495259983,0.0035199215090149
40.39069232979029,0.0035975847656896
40.41941970698075,0.0036216246490949
40.44814708417121,0.0036653810218118
40.476874461361675,0.0036910006265451
40.50560183855214,0.0036934145371085
40.5343292157426,0.0036861067447086
40.563056592933066,0.0036825248928567
40.59178397012352,0.0036967011030974
40.620511347313986,0.0037170601757052
40.64923872450445,0.0037099119130389
40.67796610169491,0.0036986639858944
40.70669347888538,0.0037479539218006
40.73542085607584,0.0038710795564337
40.7641482332663,0.003936567095131
40.79287561045676,0.0038149195297532
40.821602987647225,0.0042994143191909
40.85033036483769,0.004350569375512
40.87905774202815,0.0043253270277238
40.907785119218616,0.004593180975433
40.93651249640907,0.0041590202341815
40.965239873599536,0.006468172000213
40.99396725079,0.0079657098307273
41.022694627980464,0.0111790848049501
41.05142200517093,0.0120783763100538
41.08014938236139,0.0131794834483813
41.10887675955185,0.0136281393752892
41.13760413674231,0.0137694500358383
41.166331513932775,0.0137940741089622
41.19505889112324,0.0133657552005886
41.2237862683137,0.0117977116779537
41.25251364550416,0.0085544161746199
41.28124102269462,0.0059815356647196
41.309968399885086,0.0055247368964628
41.33869577707555,0.0050690366753595
41.367423154266014,0.0045434251616998
41.39615053145648,0.0044586052299562
41.424877908646934,0.0043206869181123
41.4536052858374,0.0043352544556988
41.48233266302786,0.0041724035185347
41.511060040218325,0.0040046229035091
41.53978741740879,0.0039536908844932
41.56851479459925,0.0039218910894144
41.59724217178971,0.0038742802796149
41.62596954898017,0.003809102097357
41.65469692617064,0.0036918083531284
41.6834243033611,0.003644582143221
41.71215168055157,0.003573279955949
41.74087905774203,0.0038732969346935
41.76960643493248,0.003578670771421
41.79833381212295,0.0037613457433619
41.82706118931341,0.0039873069919815
41.855788566503875,0.0038271880628071
41.88451594369434,0.0038448175310119
41.9132433208848,0.0039529216629405
41.94197069807526,0.0038599734302165
41.97069807526572,0.003817090847405
41.99942545245619,0.0038750631364753
42.02815282964665,0.0037484930148451
42.056880206837114,0.0036324449791367
42.08560758402758,0.0035941019028127
42.114334961218034,0.0034843154005281
42.1430623384085,0.0034357438912043
42.17178971559896,0.0036169522338504
42.200517092789426,0.0034954140606651
42.22924446997989,0.0035649580142827
42.25797184717035,0.0035266955764829
42.28669922436081,0.0036773933589642
42.31542660155127,0.003745645640603
42.34415397874174,0.0036728481455118
42.3728813559322,0.003628376781654
42.401608733122664,0.0035840454194401
42.43033611031313,0.0035751525398418
42.459063487503585,0.0035965629838804
42.48779086469405,0.0035735892237089
42.51651824188451,0.0034279970478614
42.545245619074976,0.0034489757044685
42.57397299626544,0.0035942048430192
42.6027003734559,0.0036133816443255
42.63142775064636,0.0034780892513926
42.66015512783682,0.0035739107035238
42.68888250502729,0.0036359064076906
42.71760988221775,0.0037800665948459
42.746337259408214,0.0039115919342857
42.77506463659868,0.0039015683870067
42.803792013789135,0.0040013807049478
42.8325193909796,0.0040732367920186
42.86124676817006,0.0040351335247
42.889974145360526,0.0039001199072953
42.91870152255099,0.003874399762636
42.94742889974145,0.003823810877856
42.97615627693191,0.0037029722701637
43.004883654122374,0.0037863033197701
43.03361103131284,0.0037576075850321
43.0623384085033,0.0036959340229147
43.091065785693765,0.0036866678950843
43.11979316288423,0.0037348649193313
43.148520540074685,0.0037680914112588
43.17724791726515,0.0037419077986874
43.20597529445561,0.0038621420132212
43.23470267164608,0.0038531870383604
43.26343004883654,0.0036849265692631
43.292157426027,0.0038410471737405
43.32088480321746,0.0040119977655422
43.34961218040792,0.0039786808433917
43.37833955759839,0.0038014994506352
43.40706693478885,0.0037941783451963
43.435794311979315,0.003859594105378
43.46452168916978,0.0037754399719026
43.493249066360235,0.0038466898360021
43.5219764435507,0.0036450205924284
43.55070382074116,0.0034805534787161
43.579431197931626,0.0036302929799911
43.60815857512209,0.0036102889232905
43.636885952312554,0.0036353664482183
43.66561332950301,0.0036469483227569
43.694340706693474,0.0036398042578864
43.72306808388394,0.0037067779563711
43.7517954610744,0.0036087995180715
43.780522838264865,0.0035909842452197
43.80925021545533,0.0035233211731156
43.837977592645785,0.0034248829023254
43.86670496983625,0.0033840784470119
43.89543234702671,0.0033212262404911
43.924159724217176,0.0032625321963448
43.95288710140764,0.0033779263821233
43.981614478598104,0.0034629240985351
44.01034185578856,0.0033729148243254
44.039069232979024,0.0033345269464956
44.06779661016949,0.0033599421317836
44.09652398735995,0.0033097951295911
44.125251364550415,0.0033063903369495
44.15397874174088,0.0034013931949079
44.182706118931335,0.0033627089213783
44.2114334961218,0.0033304177478685
44.24016087331226,0.0034955405773404
44.26888825050273,0.0035832123505104
44.29761562769319,0.0035108127832473
44.326343004883654,0.0036458603084468
44.35507038207411,0.0038123185047609
44.383797759264574,0.0036848498882415
44.41252513645504,0.0036947472656192
44.4412525136455,0.0037689845571769
44.469979890835965,0.0036344820750912
44.49870726802643,0.0036710299181716
44.527434645216886,0.0036821043328708
44.55616202240735,0.0037479088244169
44.58488939959781,0.0036056327252832
44.61361677678828,0.0037447672577114
44.64234415397874,0.0039530477100284
44.6710715311692,0.0038810427870051
44.69979890835966,0.0035957605186217
44.72852628555013,0.0040258329188645
44.75725366274059,0.0048439519299823
44.78598103993105,0.0007367933315781
44.81470841712152,0.0056906894586157
44.84343579431198,0.0076610359822551
44.87216317150243,0.0159133644085012
44.9008905486929,0.0145937612002156
44.92961792588336,0.0155125541947694
44.95834530307383,0.0172669680654413
44.98707268026429,0.0170864795233702
45.015800057454754,0.0178352095794712
45.04452743464521,0.0170371657497126
45.073254811835675,0.0153010834665124
45.10198218902614,0.0120095014471418
45.1307095662166,0.0086490765197134
45.159436943407066,0.008500334061378
45.18816432059753,0.0059529716619024
45.216891697787986,0.0045048606393827
45.24561907497845,0.0053674925032855
45.27434645216891,0.0050311068421663
45.30307382935938,0.0047570918862351
45.33180120654984,0.0047200731655955
45.360528583740304,0.0045197140220942
45.38925596093076,0.0043415474956519
45.417983338121225,0.0043405602631584
45.44671071531169,0.0043210736044462
45.47543809250215,0.0041381633639976
45.504165469692616,0.0038844919149586
45.53289284688308,0.0039437808572554
45.561620224073536,0.0038871208053363
45.590347601264,0.0037779296402629
45.619074978454464,0.0039044671004818
45.64780235564493,0.003838892441721
45.67652973283539,0.0036695572555034
45.705257110025855,0.0036572035313555
45.73398448721631,0.0038987471737362
45.762711864406775,0.0039341452644313
45.79143924159724,0.0038460987313452
45.8201666187877,0.0038995231199208
45.848893995978166,0.0039107999776184
45.87762137316863,0.003913675108758
45.906348750359086,0.0040325655798861
45.93507612754955,0.0039508844803455
45.963803504740014,0.0037934698710185
45.99253088193048,0.0038758410891505
46.02125825912094,0.0039678739193673
46.049985636311405,0.003838973842904
46.07871301350186,0.0039013452980745
46.107440390692325,0.00386967262361
46.13616776788279,0.0040093046692962
46.16489514507325,0.0041705087157966
46.19362252226371,0.0041520621952314
46.22234989945418,0.0040517662906684
46.25107727664464,0.0039642815668014
46.2798046538351,0.0039653564866659
46.30853203102557,0.0040519047829064
46.33725940821603,0.0040341001045515
46.36598678540649,0.0038884255556373
46.394714162596955,0.0038895156714732
46.42344153978741,0.0040445140128133
46.452168916977875,0.0039856401152952
46.48089629416834,0.0039212048490751
46.5096236713588,0.0039904272707886
46.538351048549266,0.0037818326354557
46.56707842573973,0.0038209715684648
46.59580580293019,0.0039932977891611
46.62453318012065,0.0039965179789279
46.653260557311114,0.0038950662454424
46.68198793450158,0.0037718529086338
46.71071531169204,0.0037456749707285
46.739442688882505,0.0038342383700616
46.76817006607296,0.0038419087172541
46.796897443263425,0.0037307900671802
46.82562482045389,0.0036899670152547
46.85435219764435,0.0037644554137949
46.88307957483482,0.0036393705815207
46.91180695202528,0.0035818311281579
46.94053432921574,0.0035128667194526
46.9692617064062,0.0034775350902973
46.997989083596664,0.0034972941545141
47.02671646078713,0.0034719978631169
47.05544383797759,0.003408901530631
47.08417121516805,0.0034337263549404
47.11289859235851,0.0037447671353978
47.141625969548976,0.0036983376093992
47.17035334673944,0.0036354932863128
47.1990807239299,0.0035965158722633
47.22780810112037,0.0035245452644174
47.25653547831082,0.0036517910670939
47.28526285550129,0.0035967183867377
47.31399023269175,0.0035570911939657
47.342717609882214,0.0035094339373649
47.37144498707268,0.0034649431774758
47.40017236426314,0.0035499276490444
47.4288997414536,0.0038603693872908
47.45762711864406,0.0039370668168343
47.486354495834526,0.0034670394149131
47.51508187302499,0.0036769085074398
47.54380925021545,0.0035921717683293
47.57253662740592,0.0035745566689842
47.60126400459637,0.0036637862150881
47.62999138178684,0.0036125211210743
47.6587187589773,0.0035893810572952
47.687446136167765,0.0036202840238096
47.71617351335823,0.0038182188133928
47.74490089054869,0.0032704472772626
47.77362826773915,0.0034849875179555
47.80235564492961,0.0039823422293653
47.83108302212008,0.0035631352572962
47.85981039931054,0.0035547549735678
47.888537776501,0.0034212038779164
47.91726515369147,0.0035862896685003
47.94599253088192,0.0036849784537256
47.97471990807239,0.0037684475862015
48.00344728526285,0.0036613117438134
48.032174662453315,0.003657933099629
48.06090203964378,0.0037281232123298
48.08962941683424,0.0037250248259675
48.1183567940247,0.0035955221441412
48.14708417121516,0.0036301871412235
48.175811548405626,0.0037053449923171
48.20453892559609,0.0036567928100712
48.233266302786554,0.0036415387276786
48.26199367997702,0.0036821924123507
48.290721057167474,0.0036868484633651
48.31944843435794,0.0036897043240453
48.3481758115484,0.0038299930103584
48.376903188738865,0.0037341377572175
48.40563056592933,0.0037442568699481
48.43435794311979,0.0038558808467494
48.46308532031025,0.003854137785505
48.49181269750071,0.0036284474942582
48.520540074691176,0.0035755731483222
48.54926745188164,0.0038082849262005
48.577994829072104,0.0037133912315262
48.60672220626257,0.0035880017650193
48.635449583453024,0.0036237293920491
48.66417696064349,0.0035238719358411
48.69290433783395,0.0033414173131965
48.721631715024415,0.0031251086045269
48.75035909221488,0.0036081257473466
48.77908646940534,0.003300186013099
48.8078138465958,0.0046209407335914
48.83654122378626,0.0075305488167762
48.86526860097673,0.0105740417180758
48.89399597816719,0.0135199920040314
48.922723355357654,0.0157321948957013
48.95145073254812,0.0164881724647705
48.980178109738574,0.0164971235545416
49.00890548692904,0.0166499064629266
49.0376328641195,0.0170382616387957
49.066360241309965,0.0155879326076284
49.09508761850043,0.0117545583410116
49.12381499569089,0.0088556198276559
49.15254237288135,0.0073452943315954
49.18126975007181,0.0059936191081351
49.20999712726228,0.0050870679899186
49.23872450445274,0.0047622575576917
49.2674518816432,0.0047742209264213
49.29617925883367,0.0045221042550469
49.32490663602413,0.0038779049411137
49.35363401321459,0.0038836812560208
49.38236139040505,0.0039049447185346
49.411088767595515,0.0036344170106455
49.43981614478598,0.0044956048837904
49.46854352197644,0.0042398145126999
49.4972708991669,0.0040609885888354
49.52599827635736,0.0040312415335855
49.55472565354783,0.0043988937553528
49.58345303073829,0.0044781747930251
49.612180407928754,0.004424232742903
49.64090778511922,0.0047520353167405
49.669635162309675,0.0042772444937784
49.69836253950014,0.0043661996614005
49.7270899166906,0.0046381062851841
49.755817293881066,0.0039433391834039
49.78454467107153,0.0039577991602809
49.81327204826199,0.0040587017053595
49.84199942545245,0.0038678866941846
49.87072680264291,0.0039235678576321
49.89945417983338,0.0039641696500587
49.92818155702384,0.0039974189420378
49.956908934214304,0.0041638512969987
49.98563631140477,0.0042036166980359
50.014363688595225,0.0040392174235014
50.04309106578569,0.0041821334743192
50.07181844297615,0.004038916632664
50.100545820166616,0.0037726814295387
50.12927319735708,0.0038978259867569
50.15800057454754,0.0038136968404356
50.186727951738,0.0036642708019687
50.21545532892846,0.0036028779856903
50.24418270611893,0.0036478999865011
50.27291008330939,0.0036310111877619
50.301637460499855,0.0036104928219448
50.33036483769032,0.0036689864779616
50.359092214880775,0.0036699004092718
50.38781959207124,0.0036806681021719
50.4165469692617,0.0037759896942088
50.445274346452166,0.0037656148637898
50.47400172364263,0.0036651932599432
50.50272910083309,0.0037539616909257
50.53145647802355,0.0040677257273171
50.560183855214014,0.0041265024499345
50.58891123240448,0.0040556300164141
50.61763860959494,0.004131101379748
50.646365986785405,0.0041782605674842
50.67509336397587,0.0040618608592903
50.703820741166325,0.0041733787419599
50.73254811835679,0.0036414339964372
50.76127549554725,0.0035814848952467
50.79000287273771,0.0035285864458536
50.81873024992818,0.0034666956397269
50.84745762711864,0.003677673041651
50.8761850043091,0.0036962588262369
50.90491238149957,0.0036899122143281
50.93363975869003,0.003840447066699
50.96236713588049,0.0037897391745107
50.991094513070955,0.0038314562821998
51.01982189026142,0.0039593252564045
51.048549267451875,0.0040239313911066
51.07727664464234,0.0036714192235684
51.1060040218328,0.0036665773819666
51.134731399023266,0.0037952631042015
51.16345877621373,0.0037172257806913
51.192186153404194,0.003682677984899
51.22091353059465,0.0036394491031697
51.249640907785114,0.0037398119657371
51.27836828497558,0.0037112268294625
51.30709566216604,0.0035886053310474
51.335823039356505,0.0034526191225748
51.36455041654697,0.0033868458902317
51.393277793737425,0.0034365890205885
51.42200517092789,0.0033912344495188
51.45073254811835,0.0033940682992147
51.47945992530882,0.003527471344052
51.50818730249928,0.0032376309929177
51.536914679689744,0.0032079887753245
51.5656420568802,0.0032286924000273
51.594369434070664,0.0033263936768344
51.62309681126113,0.00346140399483
51.65182418845159,0.0033869946388898
51.680551565642055,0.0034639093951791
51.70927894283252,0.0034947016159354
51.738006320022976,0.003612261951263
51.76673369721344,0.0036983074584586
51.7954610744039,0.0033777372079353
51.82418845159437,0.0035064894745455
51.85291582878483,0.0036307678892819
51.881643205975294,0.0035768620656318
51.91037058316575,0.0033556538042141
51.939097960356214,0.0032307765089177
51.96782533754668,0.003557422259998
51.99655271473714,0.0036278651758605
52.025280091927605,0.0034956241087911
52.05400746911807,0.0035809277991675
52.082734846308526,0.0035832300460942
52.11146222349899,0.0035394869498255
52.14018960068945,0.0035402770722611
52.16891697787992,0.0034806147113988
52.19764435507038,0.00337224434084
52.22637173226085,0.0033101280013918
52.2550991094513,0.0033322694423283
52.283826486641765,0.0032648644979276
52.31255386383223,0.0033671827009159
52.34128124102269,0.003534816131814
52.37000861821315,0.0035624674014054
52.39873599540362,0.0033175015138506
52.42746337259408,0.0036778227058023
52.45619074978454,0.0037100440746316
52.484918126975,0.0035715971064997
52.51364550416547,0.0035406135454582
52.54237288135593,0.0035338588240753
52.571100258546394,0.0035676963629476
52.59982763573685,0.003626692396758
52.628555012927315,0.0036402195580116
52.65728239011778,0.0036065473956052
52.68600976730824,0.0035750217118479
52.714737144498706,0.0036331801164967
52.74346452168917,0.0035436410892188
52.772191898879626,0.0034979253676365
52.80091927607009,0.0035498087778642
52.82964665326055,0.0034322780833408
52.85837403045102,0.0035435036226736
52.88710140764148,0.0049663805203242
52.915828784831945,0.0094220839370437
52.9445561620224,0.0135922071210038
52.973283539212865,0.014931603863445
53.00201091640333,0.0183897189931562
53.03073829359379,0.0168690613588722
53.059465670784256,0.0169936284329627
53.08819304797471,0.0174987226625391
53.116920425165176,0.0169267403424497
53.14564780235564,0.0132079997134668
53.174375179546104,0.0111181117119694
53.20310255673657,0.0069622457482115
53.23182993392703,0.0055851572368794
53.26055731111749,0.0049707027009264
53.28928468830795,0.0043378374611174
53.318012065498415,0.0047058242656865
53.34673944268888,0.0043598543702597
53.37546681987934,0.0038547405486316
53.404194197069806,0.0037930182421853
53.43292157426026,0.0041809166837612
53.46164895145073,0.0036635768474911
53.49037632864119,0.0038394350213532
53.519103705831654,0.0035687350800973
53.54783108302212,0.0038106155266222
53.57655846021258,0.0037222786417077
53.60528583740304,0.0037109483783423
53.6340132145935,0.004008284626276
53.662740591783965,0.0040086636223786
53.69146796897443,0.0038936513453313
53.72019534616489,0.0039010741692641
53.74892272335536,0.0041279686104459
53.77765010054581,0.004138604985096
53.80637747773628,0.0039200710091171
53.83510485492674,0.0037601563221856
53.8638322321172,0.0034879031477278
53.89255960930767,0.0035319062419052
53.92128698649813,0.0036743613458604
53.95001436368859,0.0036834445285686
53.97874174087905,0.0035254308472148
54.007469118069515,0.0035263056624353
54.03619649525998,0.0037651275679798
54.06492387245044,0.0038229829559868
54.09365124964091,0.003762481963361
54.12237862683136,0.0037732250374861
54.15110600402183,0.0037503510192343
54.17983338121229,0.0036834942098096
54.208560758402754,0.0036225001041874
54.23728813559322,0.0034487872047977
54.26601551278368,0.0032749883552572
54.29474288997414,0.003299196097324
54.3234702671646,0.0033319023127173
54.352197644355066,0.0032614432181922
54.38092502154553,0.0034457592558319
54.40965239873599,0.0034813836732965
54.43837977592646,0.0033832927353789
54.46710715311691,0.0033396828704522
54.49583453030738,0.0034201044805655
54.52456190749784,0.0033874974513049
54.553289284688304,0.0034387207573471
54.58201666187877,0.0034888959262767
54.61074403906923,0.0033728712438258
54.63947141625969,0.0032959541953639
54.66819879345015,0.0033872850531885
54.696926170640616,0.0033770905165949
54.72565354783108,0.0032340073420627
54.75438092502154,0.0034403712544393
54.78310830221201,0.0036905104543053
54.81183567940246,0.0036406793797151
54.84056305659293,0.0036424500180933
54.86929043378339,0.0036740126844815
54.898017810973855,0.0037388979038776
54.92674518816432,0.0034771180028787
54.95547256535478,0.0038201924642569
54.98419994254524,0.0043125738411289
55.0129273197357,0.0033523414051513
55.041654696926166,0.0035742826425638
55.07038207411663,0.003827590998357
55.09910945130709,0.0037091241313069
55.12783682849756,0.0035822725909823
55.156564205688014,0.0037483133674428
55.18529158287848,0.0037561226561459
55.21401896006894,0.0033784494377646
55.242746337259405,0.003423241315934
55.27147371444987,0.0034091419462889
55.30020109164033,0.0033974425371181
55.32892846883079,0.0034105909079572
55.35765584602125,0.0034306528982972
55.38638322321171,0.0034937141134379
55.41511060040218,0.003578790020443
55.44383797759264,0.0035508416849103
55.47256535478311,0.0035813023136881
55.50129273197357,0.0036253197567561
55.53002010916403,0.0035698905256514
55.55874748635449,0.0036001312188879
55.587474863544955,0.0035168594482873
55.61620224073542,0.0033937610269214
55.64492961792588,0.0033917119749151
55.67365699511634,0.0031941017984002
55.7023843723068,0.0032995140247778
55.731111749497266,0.0032756746186114
55.75983912668773,0.0031783431079533
55.788566503878194,0.0033140842404908
55.81729388106866,0.0033522742742896
55.846021258259114,0.0035333161399252
55.87474863544958,0.0037995536053777
55.90347601264004,0.0037035967293717
55.932203389830505,0.0037185732713284
55.96093076702097,0.003836228659591
55.98965814421143,0.0037577747234674
56.01838552140189,0.0038373363959301
56.04711289859235,0.0037619965581594
56.07584027578282,0.0035315126963666
56.10456765297328,0.0034985857499439
56.133295030163744,0.0035332810195793
56.16202240735421,0.0034686488385164
56.190749784544664,0.0036165171953522
56.21947716173513,0.0035835154201989
56.24820453892559,0.0035874679059202
56.276931916116055,0.0036175893878028
56.30565929330652,0.0035952450001616
56.33438667049698,0.0034739866155391
56.36311404768744,0.0033788115140916
56.3918414248779,0.0034267545156845
56.42056880206837,0.0035784283331179
56.44929617925883,0.0035610814944241
56.478023556449294,0.0031352700835138
56.50675093363976,0.0035786304754446
56.535478310830214,0.0040303698086896
56.56420568802068,0.0040737089025135
56.59293306521114,0.0041467759255375
56.621660442401605,0.0041840287194457
56.65038781959207,0.0040960422730785
56.67911519678253,0.0041328885766788
56.70784257397299,0.0039621112715515
56.73656995116345,0.0043562644897408
56.76529732835392,0.0042643712799872
56.79402470554438,0.003285056207535
56.82275208273485,0.0029932114296047
56.85147945992531,0.0025040954876262
56.880206837115765,0.0059629007740063
56.90893421430623,0.0100902395207868
56.93766159149669,0.0133755822937486
56.96638896868715,0.0135784465790903
56.99511634587762,0.0149268696969087
57.02384372306808,0.0144748281648056
57.05257110025854,0.0161008754683619
57.081298477449,0.0157850127653099
57.11002585463947,0.0114870549304408
57.13875323182993,0.0121011731574593
57.167480609020394,0.0127766713043918
57.19620798621086,0.0044023814834907
57.224935363401315,0.0047956638437362
57.25366274059178,0.0043148735579512
57.28239011778224,0.0042756654168864
57.311117494972706,0.0039411426950361
57.33984487216317,0.003776557182622
57.36857224935363,0.003785193622949
57.39729962654409,0.0036975845902387
57.42602700373455,0.0036764040085213
57.45475438092502,0.0036334077830018
57.48348175811548,0.0033802957726964
57.512209135305945,0.003144202419794
57.54093651249641,0.0033122484671404
57.569663889686865,0.0034273165773699
57.59839126687733,0.0031971132254031
57.62711864406779,0.0032684471523959
57.655846021258256,0.0032360110402905
57.68457339844872,0.0033917819005296
57.71330077563918,0.0036275703557375
57.74202815282964,0.0034976949233694
57.770755530020104,0.0035498772539462
57.79948290721057,0.0035613971574099
57.82821028440103,0.0034608662566854
57.856937661591495,0.0034297339331565
57.88566503878196,0.003641148279349
57.914392415972415,0.0034663216785704
57.94311979316288,0.0035068770671949
57.97184717035334,0.0032060602926185
58.000574547543806,0.0031906704691485
58.02930192473427,0.0033777326175294
58.05802930192473,0.0032794941592245
58.08675667911519,0.0029718608030714
58.115484056305654,0.003508412071227
58.14421143349612,0.0040169371640291
58.17293881068658,0.0024600987196725
58.201666187877045,0.0032730352904313
58.23039356506751,0.0032289204780163
58.259120942257965,0.0032358476547618
58.28784831944843,0.0032942915850257
58.31657569663889,0.0034022522671008
58.34530307382936,0.0034400416711418
58.37403045101982,0.003380577644241
58.40275782821029,0.0034105640037011
58.43148520540074,0.0034679704032596
58.4602125825912,0.0034414309804999
58.48893995978167,0.0033330671089218
58.51766733697213,0.0033763043792322
58.546394714162595,0.0035602429401581
58.57512209135306,0.0034966510315984
58.603849468543515,0.0034229823830535
58.63257684573398,0.0033832020009648
58.66130422292444,0.0033389792111948
58.69003160011491,0.0032595871642795
58.71875897730537,0.0032869157722639
58.747486354495834,0.0033513145604876
58.77621373168629,0.0031739469774442
58.804941108876754,0.0030203048984931
58.83366848606722,0.0030981019054416
58.86239586325768,0.0031173103732037
58.891123240448145,0.003087962831988
58.9198506176386,0.0032305559853778
58.948577994829066,0.0032056910475753
58.97730537201953,0.0029255956715341
59.00603274920999,0.0030614413978142
59.03476012640046,0.0030042711967436
59.06348750359092,0.0029956304551787
59.09221488078138,0.0030267034140161
59.12094225797184,0.0030417536302855
59.149669635162304,0.0030025154576698
59.17839701235277,0.0029557106492599
59.20712438954323,0.0029553515531621
59.235851766733695,0.0028686721923503
59.26457914392415,0.0028734383313275
59.293306521114616,0.0029376504943748
59.32203389830508,0.0028846866678298
59.35076127549554,0.0030522707458685
59.37948865268601,0.002860216204431
59.40821602987647,0.0030140802516292
59.43694340706693,0.0031097052326252
59.46567078425739,0.0030706045964321
59.494398161447855,0.0030821141656289
59.52312553863832,0.003442700089711
59.55185291582878,0.0031998571149352
59.580580293019246,0.0030754236032811
59.6093076702097,0.0032774995401327
59.638035047400166,0.00326931855965
59.66676242459063,0.0033411587962776
59.69548980178109,0.0034294134340609
59.72421717897156,0.0033453327525929
59.75294455616202,0.0033549435946151
59.78167193335248,0.0034443605380218
59.81039931054294,0.0034919084137944
59.839126687733405,0.0035902938801004
59.86785406492387,0.0035437326584659
59.89658144211433,0.0034476294312209
59.9253088193048,0.0035106382474951
59.95403619649525,0.0035833431976649
59.98276357368571,0.0035578978895803
60.01149095087618,0.0034690367411376
60.04021832806664,0.0035082780388911
60.06894570525711,0.0035383355800678
60.09767308244757,0.0034308443981437
60.12640045963803,0.0033877007001429
60.15512783682849,0.0033416819698663
60.183855214018955,0.0032419053111552
60.21258259120942,0.0032378638177302
60.24130996839988,0.0031803568095076
60.270037345590346,0.0030826534976746
60.2987647227808,0.0030369931602962
60.327492099971266,0.0030772182749563
60.35621947716173,0.0031192078954393
60.384946854352194,0.0030615549685594
60.41367423154266,0.0031237909073319
60.44240160873312,0.0032442335971195
60.47112898592358,0.003311127331547
60.49985636311404,0.0032498355185788
60.528583740304505,0.0031575230632391
60.55731111749497,0.0031635069670269
60.58603849468543,0.0032358863018216
60.614765871875896,0.0032572327272735
60.64349324906635,0.0031511874675652
60.672220626256816,0.0033636967022488
60.70094800344728,0.00326464022693
60.729675380637744,0.0033632161775849
60.75840275782821,0.0033737533033771
60.78713013501867,0.0033789642778745
60.81585751220913,0.0035639468922761
60.84458488939959,0.003539082322696
60.873312266590055,0.0038135844893503
60.90203964378052,0.0034401511580841
60.93076702097098,0.010191791130707067
60.959494398161446,0.0172599124404169
60.9882217753519,0.016152757298945
61.01694915254237,0.0169452590747501
61.04567652973283,0.017627765340891
61.074403906923294,0.0178291779889909
61.10313128411376,0.0180702047674491
61.13185866130422,0.0177422267915276
61.16058603849468,0.0152837067022374
61.18931341568514,0.0105652980926409
61.218040792875605,0.0094246265964406
61.24676817006607,0.0077520809557999
61.27549554725653,0.0061254028564039
61.304222924447,0.0053272682872408
61.33295030163745,0.0050727576676266
61.36167767882792,0.0047415380037154
61.39040505601838,0.0042500412532116
61.41913243320885,0.003940401965423
61.44785981039931,0.0038677202153253
61.47658718758977,0.0036926925998272
61.50531456478023,0.0036980033718684
61.53404194197069,0.0039084818991725
61.56276931916115,0.0039633089887231
61.59149669635162,0.0038295166997259
61.62022407354208,0.0039069562732172
61.64895145073255,0.0041968905953729
61.677678827923,0.0040075075459319
61.70640620511347,0.0039416390958896
61.73513358230393,0.0039736954386207
61.763860959494394,0.0040489451175351
61.79258833668486,0.004091781296212
61.82131571387532,0.0039979328224883
61.85004309106578,0.003801964689249
61.87877046825624,0.0036968402735053
61.907497845446706,0.0037314491673947
61.93622522263717,0.0037718877785831
61.96495259982763,0.0036461520537079
61.9936799770181,0.0037472425289355
62.02240735420855,0.0038595110898372
62.05113473139902,0.0038914209846593
62.07986210858948,0.0038986893013815
62.108589485779945,0.00384252970584
62.13731686297041,0.0037693253495967
62.16604424016087,0.003652340002689
62.19477161735133,0.0036678263106876
62.22349899454179,0.0036928159027445
62.252226371732256,0.00337877161149
62.28095374892272,0.0032889869183042
62.30968112611318,0.0031917467687029
62.33840850330365,0.0033160448420024
62.367135880494104,0.0032000482008039
62.39586325768457,0.0030394800232463
62.42459063487503,0.0030443852977473
62.453318012065495,0.0030119168674844
62.48204538925596,0.0029900100435074
62.51077276644642,0.0029483519350638
62.53950014363688,0.0027918589576359
62.56822752082734,0.0028622322395859
62.596954898017806,0.0030760205949961
62.62568227520827,0.0030615141418048
62.65440965239873,0.0031504972648725
62.6831370295892,0.0034002276602398
62.711864406779654,0.0033689422464795
62.74059178397012,0.0034543572188621
62.76931916116058,0.0034652113008886
62.798046538351045,0.0034864144353441
62.82677391554151,0.0036296567694872
62.85550129273197,0.0035629889743013
62.88422866992243,0.0034371814381916
62.91295604711289,0.0035025507380425
62.94168342430336,0.0036260062297682
62.97041080149382,0.0036740321072491
62.99913817868429,0.0036371860313314
63.02786555587475,0.0036028050513158
63.0565929330652,0.0036368999988249
63.08532031025567,0.0036998240747617
63.11404768744613,0.003700026336018
63.142775064636595,0.0036068435017339
63.17150244182706,0.0035277550499069
63.20022981901752,0.0035402422210542
63.22895719620798,0.0036409510907878
63.25768457339844,0.0034800730396815
63.28641195058891,0.0034301729713864
63.31513932777937,0.0035827896053051
63.343866704969834,0.003650700789867
63.3725940821603,0.0036422338057037
63.401321459350754,0.0035546337571071
63.43004883654122,0.0035232454369974
63.45877621373168,0.0034820732461056
63.487503590922145,0.003742848988632
63.51623096811261,0.0037807452536305
63.54495834530307,0.0034677669081883
63.57368572249353,0.0037829120038066
63.60241309968399,0.0037028829294174
63.63114047687446,0.0036813523338307
63.65986785406492,0.0037651867365215
63.688595231255384,0.0037805407782124
63.71732260844585,0.0037635502539402
63.746049985636304,0.0036668337082457
63.77477736282677,0.0034372491621717
63.80350474001723,0.0034610423391806
63.832232117207695,0.0036075079307841
63.86095949439816,0.0030687071861594
63.88968687158862,0.0033713811513763
63.91841424877908,0.0034116332426488
63.94714162596954,0.0034017778970732
63.97586900316001,0.0034343636588111
64.00459638035046,0.0033673650877112
64.03332375754093,0.0034371720521787
64.06205113473139,0.0035497082214625
64.09077851192185,0.0035484147926815
64.11950588911232,0.0035451732494662
64.14823326630278,0.0035807707723258
64.17696064349325,0.0034893917823856
64.20568802068371,0.0035823502138532
64.23441539787417,0.0036625632305745
64.26314277506464,0.0036601851853788
64.2918701522551,0.0036030671316395
64.32059752944556,0.0035578720593687
64.34932490663601,0.0035829020261293
64.37805228382648,0.0036097826098418
64.40677966101694,0.0035886047076672
64.4355070382074,0.003553925224016
64.46423441539787,0.0035446395738194
64.49296179258833,0.0035611830365027
64.5216891697788,0.0035617320646626
64.55041654696926,0.0035787007307919
64.57914392415972,0.0036660316734943
64.60787130135019,0.0036832003703033
64.63659867854065,0.0036016741898849
64.66532605573111,0.0035769302035894
64.69405343292156,0.0035656367209448
64.72278081011203,0.0034960726129926
64.75150818730249,0.0034955123094542
64.78023556449295,0.0035272637402935
64.80896294168342,0.0035347322310961
64.83769031887388,0.0035283563515086
64.86641769606435,0.0035258937378424
64.89514507325481,0.0035376234830278
64.92387245044527,0.0035566215667644
64.95259982763574,0.0035421237649909
64.9813272048262,0.003372432771444
65.01005458201665,0.0042353172929389
65.03878195920711,0.0070575237698383
65.06750933639758,0.0104568033227701
65.09623671358804,0.0128093954936701
65.1249640907785,0.0134326439349568
65.15369146796897,0.0136624754085443
65.18241884515943,0.0137769734400124
65.2111462223499,0.0123243649648865
65.23987359954036,0.0140900444539851
65.26860097673082,0.0146950972966495
65.29732835392129,0.0155063513045942
65.32605573111175,0.009419572427792051
65.3547831083022,0.009524822789106243
65.38351048549266,0.0087782924186776
65.41223786268313,0.0049363472456004
65.44096523987359,0.0038132760413237
65.46969261706406,0.0038246853663702
65.49841999425452,0.0037530651912286
65.52714737144498,0.0039488346340976
65.55587474863545,0.0039591557415903
65.58460212582591,0.0037106008355281
65.61332950301637,0.0039155333876054
65.64205688020684,0.00390754915195
65.6707842573973,0.0039388682418758
65.69951163458775,0.0040121683624668
65.72823901177821,0.0040182254059299
65.75696638896868,0.0038350040175739
65.78569376615914,0.0038807965304138
65.8144211433496,0.0040916487542743
65.84314852054007,0.004042771966328
65.87187589773053,0.0040380252025511
65.900603274921,0.0038334252597817
65.92933065211146,0.0038084863858676
65.95805802930192,0.0037371694047074
65.98678540649239,0.0037004264782059
66.01551278368285,0.0037382186310797
66.0442401608733,0.0035261964282759
66.07296753806376,0.0032743734654135
66.10169491525423,0.0032086000938788
66.13042229244469,0.0032454208568252
66.15914966963516,0.0032950137251275
66.18787704682562,0.0033121158782289
66.21660442401608,0.0033767184681834
66.24533180120655,0.0033715698671027
66.27405917839701,0.0033827433564883
66.30278655558747,0.0035931414793944
66.33151393277794,0.0034992856465123
66.3602413099684,0.0034663943995746
66.38896868715885,0.0035907452775414
66.41769606434931,0.0036314704996344
66.44642344153978,0.0032909010621125
66.47515081873024,0.0032770908240291
66.5038781959207,0.0034240797044842
66.53260557311117,0.0033481631600036
66.56133295030163,0.0032087045140517
66.5900603274921,0.0036635584503156
66.61878770468256,0.0032674240429685
66.64751508187302,0.003284426386703
66.67624245906349,0.0033696169250637
66.70496983625395,0.0034022006857583
66.7336972134444,0.0033081977346368
66.76242459063486,0.0033048627545546
66.79115196782533,0.0033213557955576
66.81987934501579,0.0033412780969998
66.84860672220626,0.0034221750932057
66.87733409939672,0.0035339544317366
66.90606147658718,0.0034136475849464
66.93478885377765,0.0036390049174416
66.96351623096811,0.0037765078832963
66.99224360815857,0.0037221442969909
67.02097098534904,0.003604253297094
67.0496983625395,0.003494365910843
67.07842573972995,0.0034738243406519
67.10715311692041,0.0035938594392526
67.13588049411088,0.0035775667743149
67.16460787130134,0.0033269713419449
67.1933352484918,0.0032010380643275
67.22206262568227,0.0032279111438045
67.25079000287273,0.0032493944081428
67.2795173800632,0.0032351580966452
67.30824475725366,0.0031999086469015
67.33697213444412,0.0031814161626881
67.36569951163459,0.0032101960248861
67.39442688882505,0.0032348817846199
67.4231542660155,0.0032214595979444
67.45188164320597,0.0033400793011266
67.48060902039643,0.0033027199641595
67.50933639758689,0.0031621193159549
67.53806377477736,0.0031405191678235
67.56679115196782,0.0031883797817794
67.59551852915828,0.0032907906867458
67.62424590634875,0.0034427753839072
67.65297328353921,0.0035200730064334
67.68170066072967,0.0034449946413312
67.71042803792014,0.003299523172681
67.7391554151106,0.0035716696593376
67.76788279230105,0.0036667882916743
67.79661016949152,0.0035004549399077
67.82533754668198,0.0033906171493342
67.85406492387244,0.0035441664191688
67.8827923010629,0.0036345135655072
67.91151967825337,0.0035851914727782
67.94024705544383,0.0036587864143193
67.9689744326343,0.0036495391165278
67.99770180982476,0.003506594046644
68.02642918701522,0.0036311938688365
68.05515656420569,0.0035808200056886
68.08388394139615,0.0035874878356939
68.1126113185866,0.0037095976384981
68.14133869577707,0.0036569457629805
68.17006607296753,0.0035431737732684
68.19879345015799,0.0035147555476767
68.22752082734846,0.0036001323816789
68.25624820453892,0.0034705405171485
68.28497558172938,0.0034707485199906
68.31370295891985,0.0033583242900926
68.34243033611031,0.0033335171622432
68.37115771330078,0.0035873677930338
68.39988509049124,0.0036057644855007
68.4286124676817,0.0034923374396197
68.45733984487215,0.0035622481814934
68.48606722206262,0.0037541063575529
68.51479459925308,0.00375405089531
68.54352197644354,0.0036478897300951
68.572249353634,0.0036777930756393
68.60097673082447,0.0035646594122655
68.62970410801493,0.0035665239889769
68.6584314852054,0.0036870812854412
68.68715886239586,0.0037053411711366
68.71588623958633,0.0034200969272503
68.74461361677679,0.0035405294818897
68.77334099396725,0.0035634059123661
68.8020683711577,0.0035090279319328
68.83079574834817,0.0035327152742918
68.85952312553863,0.0034950411544493
68.8882505027291,0.0033578179409302
68.91697787991956,0.0032499217246764
68.94570525711002,0.0034198538126674
68.97443263430048,0.0029495991880544
69.00316001149095,0.0039687980214293
69.03188738868141,0.0061055159957105
69.06061476587188,0.010716465594869065
69.08934214306234,0.01246550397602371
69.1180695202528,0.0208424364066826
69.14679689744325,0.0164738629119519
69.17552427463372,0.0166859449254989
69.20425165182418,0.0164186071058522
69.23297902901464,0.0167815441026401
69.2617064062051,0.0165604881756497
69.29043378339557,0.0159525687108001
69.31916116058603,0.0134803423150035
69.3478885377765,0.0083879074634067
69.37661591496696,0.0062336347081091
69.40534329215743,0.0051793903906828
69.43407066934789,0.0037151511647529
69.46279804653835,0.0042291167982094
69.4915254237288,0.0040075579299039
69.52025280091927,0.0042818836445547
69.54898017810973,0.0042342863791311
69.5777075553002,0.0043797300890698
69.60643493249066,0.0044965715713421
69.63516230968112,0.0043868714583598
69.66388968687158,0.0045146643044847
69.69261706406205,0.0047717176433937
69.72134444125251,0.0045747305650058
69.75007181844298,0.0040974998256104
69.77879919563344,0.0043433192140844
69.8075265728239,0.0041331700667649
69.83625395001435,0.0037006471091729
69.86498132720482,0.0034366085680694
69.89370870439528,0.003491085298912
69.92243608158574,0.0035265490247249
69.95116345877621,0.0035608364820581
69.97989083596667,0.0036495276357428
70.00861821315713,0.003200614297076
70.0373455903476,0.0034901042933746
70.06607296753806,0.0034513787389691
70.09480034472853,0.0033225006347353
70.12352772191899,0.0034976165038363
70.15225509910945,0.0034689244758584
70.1809824762999,0.0034474583380667
70.20970985349037,0.0034101087407408
70.23843723068083,0.0034119803086792
70.2671646078713,0.0035275738208593
70.29589198506176,0.003693766709296
70.32461936225222,0.0038213054386635
70.35334673944269,0.003823852348739
70.38207411663315,0.0037395768382789
70.41080149382361,0.0036386526331937
70.43952887101408,0.0035170041903613
70.46825624820454,0.0034915184028933
70.496983625395,0.00345770098882
70.52571100258545,0.0033712226909463
70.55443837977592,0.0033703730557177
70.58316575696638,0.0035169188593993
70.61189313415684,0.0035983336666443
70.64062051134731,0.0034773419421812
70.66934788853777,0.0036239459241681
70.69807526572824,0.0036349724199013
70.7268026429187,0.0036113777854938
70.75553002010916,0.0036059406459768
70.78425739729963,0.0035953202184178
70.81298477449009,0.0036382240875306
70.84171215168054,0.0037271207807854
70.870439528871,0.0037466527689474
70.89916690606147,0.0036938782168633
70.92789428325193,0.0036447692495168
70.9566216604424,0.0036518958404346
70.98534903763286,0.0035096319986053
71.01407641482332,0.0034850400326943
71.04280379201379,0.0033944441752216
71.07153116920425,0.0034154562729387
71.10025854639471,0.0035749164504822
71.12898592358518,0.0036870628442317
71.15771330077564,0.0036275935536764
71.18644067796609,0.0035885143586705
71.21516805515655,0.00366512621051
71.24389543234702,0.0037354468145766
71.27262280953748,0.0037759023174932
71.30135018672794,0.0037881835870875
71.33007756391841,0.0036903429749491
71.35880494110887,0.0034944079388208
71.38753231829934,0.0032963627174655
71.4162596954898,0.0033068656592138
71.44498707268026,0.0033589579233535
71.47371444987073,0.0032467290774534
71.50244182706119,0.003277164784184
71.53116920425164,0.0033026471845107
71.5598965814421,0.0033218724220609
71.58862395863257,0.0033385106931792
71.61735133582303,0.0033203646712329
71.6460787130135,0.0033053032399321
71.67480609020396,0.0033164776889817
71.70353346739442,0.0034514920854194
71.73226084458489,0.003353368551133
71.76098822177535,0.0031960271555249
71.78971559896581,0.0032573381909096
71.81844297615628,0.0032828973650249
71.84717035334674,0.0032901395407811
71.87589773053719,0.0033084601182988
71.90462510772765,0.0033017259118338
71.93335248491812,0.0032167330783114
71.96207986210858,0.0032694924936094
71.99080723929904,0.0034607361387719
72.01953461648951,0.0034487242465468
72.04826199367997,0.0034262817935687
72.07698937087044,0.0034780546811489
72.1057167480609,0.0035706474035238
72.13444412525136,0.0036387593016511
72.16317150244183,0.0036217688773815
72.19189887963229,0.0035604532281586
72.22062625682274,0.0035804113253209
72.2493536340132,0.0036832619308664
72.27808101120367,0.0035026606623724
72.30680838839413,0.0035012033341414
72.3355357655846,0.0034919616992465
72.36426314277506,0.0034081908937334
72.39299051996552,0.0034697464923342
72.42171789715599,0.0035522957443598
72.45044527434645,0.0034396212060855
72.47917265153691,0.0033442346761705
72.50790002872738,0.0033941366726377
72.53662740591784,0.0034284367515978
72.56535478310829,0.0033821872970367
72.59408216029875,0.0034150964811597
72.62280953748922,0.0035853242776762
72.65153691467968,0.0035237466140408
72.68026429187015,0.0035123357905869
72.70899166906061,0.0034245669398714
72.73771904625107,0.0035909718217099
72.76644642344154,0.0036093718517988
72.795173800632,0.0035656693634572
72.82390117782246,0.0036039178289466
72.85262855501293,0.0036946967984554
72.88135593220339,0.0037537873826151
72.91008330939384,0.0037452282074904
72.9388106865843,0.0037687285671088
72.96753806377477,0.0037863595648789
72.99626544096523,0.0036963185433193
73.0249928181557,0.0044331926692153
73.05372019534616,0.0067262779060525
73.08244757253662,0.009854632308334
73.11117494972709,0.0126336761024191
73.13990232691755,0.0136113776970467
73.16862970410801,0.0136470254065864
73.19735708129848,0.0137336473330015
73.22608445848894,0.0137671870470947
73.25481183567939,0.0131130515630643
73.28353921286985,0.0099304491635387
73.31226659006032,0.0076659660940202
73.34099396725078,0.0063685765670832
73.36972134444125,0.0044453056237771
73.39844872163171,0.0045066489560768
73.42717609882217,0.0043699703351613
73.45590347601264,0.0043153740287388
73.4846308532031,0.0041484783672091
73.51335823039356,0.0041001945197927
73.54208560758403,0.004055166419573
73.57081298477449,0.0038738836438477
73.59954036196494,0.0038136224990659
73.6282677391554,0.0038850545974724
73.65699511634587,0.0034970900481788
73.68572249353633,0.003712534440049
73.7144498707268,0.0035194229139889
73.74317724791726,0.0037059167573308
73.77190462510772,0.0038805608000252
73.80063200229819,0.0036748475360464
73.82935937948865,0.0035318511177023
73.85808675667911,0.0036634028848513
73.88681413386958,0.0037441188558392
73.91554151106004,0.003740755460158
73.94426888825049,0.0036661541649637
73.97299626544095,0.0034287490082392
74.00172364263142,0.003520632479379
74.03045101982188,0.0035229005702092
74.05917839701235,0.0033765175399923
74.08790577420281,0.0033538426710171
74.11663315139327,0.003382868079817
74.14536052858374,0.0033653593298832
74.1740879057742,0.0032886433993515
74.20281528296466,0.0033312273625687
74.23154266015513,0.0033643984307281
74.26027003734559,0.0032715560897379
74.28899741453604,0.0034391640453069
74.3177247917265,0.0032968456527553
74.34645216891697,0.0031984402505191
74.37517954610743,0.0033996846989044
74.4039069232979,0.0034007550576146
74.43263430048836,0.00338486002144
74.46136167767882,0.0033709258551109
74.49008905486929,0.003309676325237
74.51881643205975,0.0033493829209559
74.54754380925021,0.0033757172364709
74.57627118644068,0.0033867643082223
74.60499856363114,0.0033799274437079
74.63372594082159,0.0033600338209117
74.66245331801206,0.0034060702537291
74.69118069520252,0.0034750969527159
74.71990807239298,0.003489481190997
74.74863544958345,0.003458385536245
74.77736282677391,0.0034024445430242
74.80609020396437,0.0033498209867825
74.83481758115484,0.0033986538958042
74.8635449583453,0.0035485543322542
74.89227233553576,0.0036493277161401
74.92099971272623,0.0034316100047795
74.94972708991669,0.0034472233891547
74.97845446710714,0.0036168921325661
75.0071818442976,0.0035837500389533
75.03590922148807,0.0035589384163184
75.06463659867853,0.0035071321662555
75.093363975869,0.0035033415261375
75.12209135305946,0.0036585619482321
75.15081873024992,0.0035421767881284
75.17954610744039,0.003529238827932
75.20827348463085,0.0034896272541302
75.23700086182131,0.0035417479922662
75.26572823901178,0.0036293651050163
75.29445561620224,0.0033792154248087
75.32318299339269,0.0032914239707878
75.35191037058316,0.0034693962695093
75.38063774777362,0.0035793910920916
75.40936512496408,0.0035578761061584
75.43809250215455,0.0035479243955833
75.46681987934501,0.0036201294206813
75.49554725653547,0.0035392300045839
75.52427463372594,0.0035134021965167
75.5530020109164,0.003531216387031
75.58172938810687,0.0035214971505506
75.61045676529733,0.0035019366801611
75.63918414248779,0.0035275134071502
75.66791151967824,0.0033253493512168
75.6966388968687,0.0032419027026117
75.72536627405917,0.0034218588518934
75.75409365124963,0.0034319042041595
75.7828210284401,0.0032953714123065
75.81154840563056,0.0031744671471165
75.84027578282102,0.0031738273504502
75.86900316001149,0.0032727668782703
75.89773053720195,0.0033608243315002
75.92645791439242,0.0033444223266862
75.95518529158288,0.0033236020646256
75.98391266877334,0.0033714955146502
76.01264004596379,0.0033691026530594
76.04136742315426,0.0034252365097995
76.07009480034472,0.0035830068795374
76.09882217753518,0.0035417694052021
76.12754955472565,0.0033765523199407
76.15627693191611,0.0033784651432334
76.18500430910657,0.003446239664617
76.21373168629704,0.0034711894997563
76.2424590634875,0.0032585363658277
76.27118644067797,0.0035051105210934
76.29991381786843,0.0035947898602469
76.32864119505889,0.0035439005022432
76.35736857224934,0.0035317650080054
76.3860959494398,0.0035237090269917
76.41482332663027,0.0035162886887405
76.44355070382073,0.0035280399426291
76.4722780810112,0.0036010483170167
76.50100545820166,0.0036287394425363
76.52973283539212,0.0034817185046122
76.55846021258259,0.0033423669579297
76.58718758977305,0.0033098559213049
76.61591496696352,0.0032974643313309
76.64464234415398,0.0033393580226152
76.67336972134443,0.0034119414303904
76.70209709853489,0.0034250099777524
76.73082447572536,0.0034428746533353
76.75955185291582,0.0034492830472221
76.78827923010628,0.003151435493239
76.81700660729675,0.0038496274016374
76.84573398448721,0.004050916516618
76.87446136167767,0.0039969895827381
76.90318873886814,0.0040700716677498
76.9319161160586,0.0037417026650382
76.96064349324907,0.0039215333494804
76.98937087043953,0.0037884975038565
77.01809824762998,0.0044394411767523
77.04682562482044,0.0062692093214852
77.0755530020109,0.0084159581486983
77.10428037920137,0.0108161766702204
77.13300775639183,0.0130344242995705
77.1617351335823,0.014029068683535
77.19046251077276,0.0142328127747456
77.21918988796322,0.0143369002716002
77.24791726515369,0.0136328333807781
77.27664464234415,0.0138047687663472
77.30537201953462,0.0136372500949281
77.33409939672508,0.0071643147900121
77.36282677391553,0.0065155014652212
77.39155415110599,0.005205401804406
77.42028152829646,0.0042584215171591
77.44900890548692,0.0041550018151549
77.47773628267738,0.0038943482400692
77.50646365986785,0.0039946948821456
77.53519103705831,0.0038186318535769
77.56391841424877,0.0036477659076949
77.59264579143924,0.0036025416906507
77.6213731686297,0.0035785766005531
77.65010054582017,0.0035884824100114
77.67882792301063,0.0035652458978144
77.70755530020108,0.0034721293191806
77.73628267739154,0.0035893609279011
77.765010054582,0.0035643612472863
77.79373743177247,0.0035154592220371
77.82246480896293,0.0035197273822458
77.8511921861534,0.0035381881161753
77.87991956334386,0.0034304514800737
77.90864694053433,0.0034483654478471
77.93737431772479,0.0035440274625041
77.96610169491525,0.0033854013230887
77.99482907210572,0.0033238977433333
78.02355644929618,0.0033541286813827
78.05228382648663,0.0033930816613011
78.0810112036771,0.0033597867180518
78.10973858086756,0.0033459879150395
78.13846595805802,0.0032918600208046
78.16719333524848,0.0033143220792706
78.19592071243895,0.0034909388543051
78.22464808962941,0.0036987348890387
78.25337546681988,0.0034549748417923
78.28210284401034,0.0034005120829075
78.3108302212008,0.0034759327869272
78.33955759839127,0.0034559298921799
78.36828497558173,0.0033337436422959
78.39701235277218,0.0034690760357041
78.42573972996264,0.0032955153576184
78.4544671071531,0.0034579623253894
78.48319448434357,0.0036930796932082
78.51192186153403,0.0036761921258467
78.5406492387245,0.0037676457663029
78.56937661591496,0.0038137436455426
78.59810399310543,0.0038094735649279
78.62683137029589,0.0036851890427189
78.65555874748635,0.0036425561662241
78.68428612467682,0.0037127979562816
78.71301350186728,0.00322446244304
78.74174087905773,0.0033117883375382
78.7704682562482,0.0033044952804846
78.79919563343866,0.0033061057722205
78.82792301062912,0.0032339284086045
78.85665038781958,0.0031463758721462
78.88537776501005,0.0032490925490218
78.91410514220051,0.0032677507205643
78.94283251939098,0.0032959802603688
78.97155989658144,0.0032553107101782
79.0002872737719,0.0030613041339313
79.02901465096237,0.0030397784873999
79.05774202815283,0.0030676206479383
79.08646940534328,0.0030003125868261
79.11519678253374,0.0029629026415935
79.14392415972421,0.0029757858654872
79.17265153691467,0.0027715614982493
79.20137891410513,0.0028123766739349
79.2301062912956,0.0027848843627442
79.25883366848606,0.0028452727874433
79.28756104567653,0.0031437998654141
79.31628842286699,0.0029726352717309
79.34501580005745,0.0033142883605728
79.37374317724792,0.0033070032184592
79.40247055443838,0.0034638142586619
79.43119793162883,0.0035516661385591
79.4599253088193,0.0034460001002485
79.48865268600976,0.0033600104466442
79.51738006320022,0.003318529413773
79.54610744039068,0.0032377612831882
79.57483481758115,0.0031228805809888
79.60356219477161,0.0031295680813918
79.63228957196208,0.0032034496942574
79.66101694915254,0.003258552567642
79.689744326343,0.0032427968009802
79.71847170353347,0.0033968209934327
79.74719908072393,0.0037009552121123
79.77592645791438,0.0032501743056134
79.80465383510484,0.0034376994243226
79.83338121229531,0.0034846454612918
79.86210858948577,0.003465539877705
79.89083596667624,0.0034416022184449
79.9195633438667,0.003436248269894
79.94829072105716,0.0033565618252923
79.97701809824763,0.0031831957924298
80.00574547543809,0.0031462763863734
80.03447285262855,0.003261618282931
80.06320022981902,0.003384351549305
80.09192760700948,0.0032248045288848
80.12065498419993,0.0032085556775739
80.1493823613904,0.0033078369762462
80.17810973858086,0.0033440639303253
80.20683711577132,0.0033215178022448
80.23556449296179,0.0033877727912258
80.26429187015225,0.0033986260115792
80.29301924734271,0.0034110728405148
80.32174662453318,0.0035107062727622
80.35047400172364,0.0035563979024927
80.3792013789141,0.0035079550091554
80.40792875610457,0.0035045202420521
80.43665613329503,0.0035375283297275
80.46538351048548,0.0034099109292558
80.49411088767594,0.0034366451286436
80.52283826486641,0.0036561711226643
80.55156564205687,0.0036583097422095
80.58029301924734,0.0037257089810946
80.6090203964378,0.0037616924125558
80.63774777362826,0.0036716086474309
80.66647515081873,0.0035136198561037
80.69520252800919,0.0035313600061724
80.72392990519965,0.0035999528998264
80.75265728239012,0.0034345387888605
80.78138465958058,0.0031902429982595
80.81011203677103,0.003096496034954
80.8388394139615,0.0032256791060127
80.86756679115196,0.0031963704211577
80.89629416834242,0.0030496419985876
80.92502154553289,0.0035278056152172
80.95374892272335,0.0032958669613004
80.98247629991381,0.0026724459243557
81.01120367710428,0.0042385660585088
81.03993105429474,0.0063433408631145
81.0686584314852,0.001575397669472
81.09738580867567,0.0122255113526727
81.12611318586613,0.0170339799037843
81.15484056305658,0.0130692182987342
81.18356794024704,0.0150290344517593
81.21229531743751,0.0157119696334462
81.24102269462797,0.0155031156765323
81.26975007181844,0.015327759151117
81.2984774490089,0.016186350827309
81.32720482619936,0.0109595998597253
81.35593220338983,0.0063651572695815
81.38465958058029,0.0051112838770085
81.41338695777075,0.0050680730546529
81.44211433496122,0.0044856419190653
81.47084171215168,0.004300763320643
81.49956908934213,0.0039878238447223
81.5282964665326,0.0037784182584328
81.55702384372306,0.0038551602743454
81.58575122091352,0.0035322945837694
81.61447859810399,0.003534784879649
81.64320597529445,0.0032028517436192
81.67193335248491,0.0032935722337874
81.70066072967538,0.0034087431315189
81.72938810686584,0.0032902541548626
81.7581154840563,0.0033432099771569
81.78684286124677,0.0034058588533484
81.81557023843723,0.003363249779399
81.84429761562768,0.003465628436827
81.87302499281815,0.0035265151128916
81.90175237000861,0.0033913024934016
81.93047974719907,0.0033967654249641
81.95920712438954,0.0034529033142727
81.98793450158,0.0033910723008828
82.01666187877046,0.0033662940036525
82.04538925596093,0.0033055446411707
82.07411663315139,0.0031579496013602
82.10284401034185,0.0031780650734314
82.13157138753232,0.0032029506616904
82.16029876472278,0.0030950131797051
82.18902614191323,0.0033706728265029
82.2177535191037,0.0031920096329942
82.24648089629416,0.0028684046581238
82.27520827348462,0.0032028798496691
82.30393565067509,0.0034817276276343
82.33266302786555,0.0032847415531083
82.36139040505601,0.0034374211492715
82.39011778224648,0.0033074130319091
82.41884515943694,0.0031958080473456
82.4475725366274,0.0033208634926048
82.47629991381787,0.0033377041294563
82.50502729100832,0.0032348965021391
82.53375466819878,0.0031398656088739
82.56248204538925,0.0031327233680037
82.59120942257971,0.0031223870664348
82.61993679977017,0.0031995453005574
82.64866417696064,0.0031189490212298
82.6773915541511,0.0031141220091316
82.70611893134156,0.0032279387868113
82.73484630853203,0.0033119975658277
82.76357368572249,0.0032409454762738
82.79230106291295,0.0031853791265209
82.82102844010342,0.0032836471589321
82.84975581729387,0.0033293620920009
82.87848319448433,0.003277996399926
82.9072105716748,0.0032068126319608
82.93593794886526,0.0031565688645881
82.96466532605572,0.0031900779552687
82.99339270324619,0.0033344646163138
83.02212008043665,0.0029089696017013
83.05084745762711,0.0030418651087134
83.07957483481758,0.003135440245
83.10830221200804,0.0029603936877736
83.1370295891985,0.0028394292454897
83.16575696638897,0.0031543027158211
83.19448434357942,0.002862463439876
83.22321172076988,0.0027562395248777
83.25193909796035,0.0028579419966756
83.28066647515081,0.0029291645510794
83.30939385234127,0.0029362691878725
83.33812122953174,0.0029193256634501
83.3668486067222,0.0029375529807621
83.39557598391266,0.0030025087550568
83.42430336110313,0.0030791995371494
83.45303073829359,0.0031026233573691
83.48175811548406,0.00307029728737
83.51048549267452,0.003048520091545
83.53921286986497,0.0031429039059461
83.56794024705543,0.0031721001903877
83.5966676242459,0.0031603730645302
83.62539500143636,0.0030569113590119
83.65412237862682,0.0028989266263935
83.68284975581729,0.0029570647311748
83.71157713300775,0.0029540090527731
83.74030451019821,0.0030100534025968
83.76903188738868,0.0028237755985259
83.79775926457914,0.0029240989278003
83.8264866417696,0.0030762683184384
83.85521401896007,0.0030127712812622
83.88394139615052,0.0029881515966699
83.91266877334098,0.0029678035326128
83.94139615053145,0.0029430194629348
83.97012352772191,0.0029439937426171
83.99885090491237,0.0030121516854398
84.02757828210284,0.0030518577893803
84.0563056592933,0.0029935028841399
84.08503303648376,0.0030848275853458
84.11376041367423,0.0030904927456468
84.14248779086469,0.003175631450517
84.17121516805516,0.0031520030603616
84.19994254524562,0.0031274859722842
84.22866992243607,0.0031448963325275
84.25739729962653,0.0030986499762971
84.286124676817,0.0031270039314635
84.31485205400746,0.0031859176886682
84.34357943119792,0.0031296525672856
84.37230680838839,0.0030693489142073
84.40103418557885,0.0032501405553636
84.42976156276931,0.0031453140734416
84.45848893995978,0.0030709381848454
84.48721631715024,0.0031969167877072
84.5159436943407,0.0032428965899111
84.54467107153117,0.0028533121114139
84.57339844872162,0.0031294431893702
84.60212582591208,0.0032141835716366
84.63085320310255,0.0030328434501606
84.65958058029301,0.00303111787957
84.68830795748347,0.0030674813187379
84.71703533467394,0.0030257863586878
84.7457627118644,0.0029341085154848
84.77449008905486,0.0029114240920873
84.80321746624533,0.0030240195899999
84.83194484343579,0.0029365487040809
84.86067222062626,0.0031891443877595
84.88939959781672,0.0030749867427724
84.91812697500717,0.0028764862356274
84.94685435219763,0.0040078188567953
84.9755817293881,0.0033180758864244
85.00430910657856,0.0032322274650796
85.03303648376902,0.0034251391438844
85.06176386095949,0.0034271345290885
85.09049123814995,0.0035649302850553
85.11921861534042,0.0046728295036873
85.14794599253088,0.0069418407254758
85.17667336972134,0.009083646959891
85.2054007469118,0.010495479755559
85.23412812410227,0.0114762145613635
85.26285550129272,0.0122687058067118
85.29158287848318,0.0125041380326002
85.32031025567365,0.0130075964256938
85.34903763286411,0.0122783743403772
85.37776501005457,0.0101815416271995
85.40649238724504,0.0100432908411199
85.4352197644355,0.0093356479261564
85.46394714162597,0.0040046569521297
85.49267451881643,0.005707554292455
85.52140189600689,0.0049565043307301
85.55012927319736,0.0037881085840943
85.57885665038782,0.0038134307421712
85.60758402757827,0.0038820830762168
85.63631140476873,0.0037315471636489
85.6650387819592,0.0037094033332607
85.69376615914966,0.0036532596180028
85.72249353634012,0.003599175271181
85.75122091353059,0.0036033025599621
85.77994829072105,0.003489659848944
85.80867566791152,0.0033845049675911
85.83740304510198,0.0034231379115778
85.86613042229244,0.0031751486594003
85.8948577994829,0.0033511837461447
85.92358517667337,0.0034944823452506
85.95231255386382,0.0034361305691207
85.98103993105428,0.0033059743454363
86.00976730824475,0.003344969265646
86.03849468543521,0.0033789432334907
86.06722206262567,0.0033614581245345
86.09594943981614,0.0036069962871995
86.1246768170066,0.0035722504695247
86.15340419419707,0.0032794222354976
86.18213157138753,0.0033088982451042
86.210858948578,0.003225756132976
86.23958632576846,0.0032860706816229
86.26831370295892,0.0041739482992819
86.29704108014937,0.0040134446060602
86.32576845733983,0.00406510108466
86.3544958345303,0.0042211684306185
86.38322321172076,0.004702239699916
86.41195058891122,0.0055323761007296
86.44067796610169,0.0056820000798573
86.46940534329215,0.0057683840652536
86.49813272048262,0.0055453022151108
86.52686009767308,0.0058319626644245
86.55558747486354,0.006741035997545
86.584314852054,0.0072415902257892
86.61304222924447,0.00865914848973
86.64176960643492,0.0121762671028877
86.67049698362538,0.015860327777208
86.69922436081585,0.0168128457684024
86.72795173800631,0.0165845458116096
86.75667911519677,0.0167302346086568
86.78540649238724,0.0164627849180349
86.8141338695777,0.0164019690428421
86.84286124676817,0.015816010297766
86.87158862395863,0.01437612950296
86.9003160011491,0.0096211005854268
86.92904337833956,0.0052223416475869
86.95777075553002,0.0068320129293476
86.98649813272047,0.0064410593555968
87.01522550991093,0.0060568646081338
87.0439528871014,0.0060961130336282
87.07268026429186,0.006014668175407
87.10140764148233,0.0060995234083707
87.13013501867279,0.0061622022472425
87.15886239586325,0.0058857561643599
87.18758977305372,0.0059022469583518
87.21631715024418,0.00539467936504
87.24504452743464,0.0054263786467778
87.27377190462511,0.0046316480879448
87.30249928181557,0.0044503519465202
87.33122665900602,0.0041569517492192
87.35995403619648,0.0035966070454723
87.38868141338695,0.0033523901131185
87.41740879057741,0.0033192972436054
87.44613616776788,0.0032817337380076
87.47486354495834,0.0031054482324483
87.5035909221488,0.0031615467202421
87.53231829933927,0.0032642268817397
87.56104567652973,0.0030557893131128
87.5897730537202,0.0034345793433415
87.61850043091066,0.0034079339974028
87.64722780810112,0.0032927950780734
87.67595518529157,0.0033112119661774
87.70468256248203,0.0033188209489979
87.7334099396725,0.0032478680881128
87.76213731686296,0.003231078676252
87.79086469405343,0.0033603890457935
87.81959207124389,0.0033244559312118
87.84831944843435,0.003167270878838
87.87704682562482,0.0033332054322411
87.90577420281528,0.0031649319104255
87.93450158000574,0.0032661028248811
87.96322895719621,0.0032999735864052
87.99195633438667,0.003197191253488
88.02068371157712,0.0031772675878858
88.04941108876758,0.0030476855719806
88.07813846595805,0.0030994587183647
88.10686584314851,0.0033012789832597
88.13559322033898,0.0034724661616534
88.16432059752944,0.0035246266512089
88.1930479747199,0.0035572577598529
88.22177535191037,0.0035873670410292
88.25050272910083,0.0036070631617784
88.2792301062913,0.0036563787799468
88.30795748348176,0.0036357566592839
88.33668486067221,0.0033914279764845
88.36541223786267,0.0032218305151234
88.39413961505313,0.0032149259696191
88.4228669922436,0.0031944797260117
88.45159436943406,0.0031680746548443
88.48032174662453,0.0032109262654905
88.50904912381499,0.0033215269804002
88.53777650100545,0.0032368195292775
88.56650387819592,0.0033270670880958
88.59523125538638,0.0033000761136524
88.62395863257684,0.0035181538958616
88.65268600976731,0.0034838207831216
88.68141338695776,0.0033859709819006
88.71014076414822,0.0034516417998121
88.73886814133868,0.0034721486841827
88.76759551852915,0.0034556968356392
88.79632289571961,0.0034791290816369
88.82505027291008,0.0033545936504379
88.85377765010054,0.0036446872500572
88.882505027291,0.0034732143906881
88.91123240448147,0.0033668654091758
88.93995978167193,0.0034694971586607
88.9686871588624,0.0034691414969233
88.99741453605286,0.0035224776152534
89.02614191324331,0.0035156587206671
89.05486929043377,0.0032758877310159
89.08359666762424,0.0033183101973698
89.1123240448147,0.0033299451244782
89.14105142200516,0.0034036498343352
89.16977879919563,0.0036252781423222
89.19850617638609,0.0035708560418755
89.22723355357655,0.0035206409923013
89.25596093076702,0.004376129137064
89.28468830795748,0.0067502044354136
89.31341568514794,0.0100534566104199
89.34214306233841,0.0127302449150307
89.37087043952886,0.0141619234957981
89.39959781671932,0.0144895874047827
89.42832519390979,0.0142090397566846
89.45705257110025,0.0147204096836815
89.48577994829071,0.0155399566474854
89.51450732548118,0.0119553328819472
89.54323470267164,0.010902319279219
89.5719620798621,0.0085289975921114
89.60068945705257,0.0064464516009009
89.62941683424303,0.0056902467774576
89.6581442114335,0.0056179789971402
89.68687158862396,0.0053828680890249
89.71559896581441,0.0048798699245398
89.74432634300487,0.0049620975340384
89.77305372019534,0.0045817577673839
89.8017810973858,0.0041988251671399
89.83050847457626,0.0041820462642497
89.85923585176673,0.0041620586281074
89.88796322895719,0.0042845294071622
89.91669060614765,0.0037913325438686
89.94541798333812,0.0038575283683323
89.97414536052858,0.0046476835211963
90.00287273771904,0.0039418868898742
90.03160011490951,0.0039280457081716
90.06032749209996,0.0039633565502667
90.08905486929042,0.0037569126854759
90.11778224648089,0.0037765676501214
90.14650962367136,0.0039948110952337
90.1752370008618,0.0040491478664982
90.20396437805228,0.0038660428577761
90.23269175524274,0.0041944840745986
90.2614191324332,0.0040774155396222
90.29014650962368,0.0039183456536309
90.31887388681412,0.0038143293097469
90.3476012640046,0.0036914378927745
90.37632864119506,0.0036738866294464
90.40505601838552,0.0036244477390458
90.43378339557596,0.0033938943146959
90.46251077276644,0.0033862782170529
90.4912381499569,0.0035024549574381
90.51996552714736,0.0035152954732057
90.54869290433784,0.0038028220716011
90.57742028152828,0.0039110665837628
90.60614765871875,0.0037706574325627
90.63487503590922,0.0038109694559255
90.66360241309968,0.004086447689985
90.69232979029016,0.0037120346064214
90.7210571674806,0.0036203574949423
90.74978454467106,0.0038478966948603
90.77851192186152,0.0036657527794907
90.807239299052,0.0035754779664904
90.83596667624244,0.0035096309836974
90.86469405343291,0.0034810244618265
90.89342143062338,0.0035314207633694
90.92214880781384,0.0035385859968014
90.9508761850043,0.0035903652509028
90.97960356219475,0.0035998197101398
91.00833093938525,0.0035570566653622
91.0370583165757,0.0035425237507002
91.06578569376616,0.0035521105408357
91.0945130709566,0.0035647693257675
91.12324044814709,0.0035673140878915
91.15196782533754,0.0034993511372284
91.180695202528,0.0033643186048177
91.20942257971846,0.0033828087544277
91.23814995690891,0.0036620802219061
91.2668773340994,0.0039376669077009
91.29560471128984,0.0033983737997136
91.32433208848032,0.0038582437380935
91.35305946567078,0.0037031014967119
91.38178684286125,0.0038358742019942
91.41051422005172,0.0035879766222264
91.43924159724216,0.0034725443620899
91.46796897443262,0.0035319852068863
91.49669635162309,0.0035689832744979
91.52542372881356,0.0035417828884144
91.554151106004,0.0034832884259154
91.58287848319448,0.0035265010973013
91.61160586038494,0.0035528449676256
91.6403332375754,0.0035233837578247
91.66906061476588,0.0036181328819201
91.69778799195632,0.0038442726052464
91.7265153691468,0.0039515862894683
91.75524274633726,0.0036735315074271
91.78397012352772,0.0038671267829386
91.81269750071816,0.003810716795497
91.84142487790864,0.0036936400368853
91.8701522550991,0.0036456485047476
91.89887963228956,0.0035788441918688
91.92760700948004,0.0034468500358845
91.95633438667048,0.0034493674884733
91.98506176386095,0.0034765361599902
92.01378914105142,0.0035322626263271
92.04251651824188,0.0035993211529247
92.07124389543236,0.0035713771208992
92.0999712726228,0.0035327031292673
92.12869864981326,0.0035377092128234
92.15742602700372,0.0034032636829083
92.1861534041942,0.0033744800021143
92.21488078138464,0.0036443296903346
92.24360815857511,0.0033704248848849
92.27233553576558,0.0033048805856853
92.30106291295604,0.003349458956603
92.3297902901465,0.0033416207502674
92.35851766733695,0.0033475228729022
92.38724504452745,0.0034371522619036
92.4159724217179,0.0035380084330869
92.44469979890836,0.0034860498256502
92.4734271760988,0.003397767911792
92.50215455328927,0.0034149074409009
92.53088193047974,0.003523427774218
92.5596093076702,0.0035252063414019
92.58833668486066,0.0032903636032445
92.61706406205111,0.0033016319724551
92.6457914392416,0.0033909888631238
92.67451881643206,0.0030670882220323
92.70324619362252,0.0031177768274092
92.73197357081298,0.0031785646985803
92.76070094800345,0.003171861836376
92.78942832519392,0.0032214765876212
92.81815570238436,0.0034539960781627
92.84688307957482,0.0035146879436465
92.87561045676529,0.0034033924145959
92.90433783395576,0.0033965267700415
92.9330652111462,0.0034689682899002
