timestamp,emg
0.0,0.0042622868291529
0.0287273771904625,0.004293238104606
0.057454754380925,0.0041853588351228
0.0861821315713875,0.0041199452053704
0.11490950876185,0.0043088961061211
0.1436368859523125,0.0043777266761644
0.172364263142775,0.0041106884229576
0.2010916403332375,0.0040964037548847
0.2298190175237,0.004227079756029
0.2585463947141626,0.0040920885338859
0.2872737719046251,0.0041406543713709
0.3160011490950876,0.0042894791183496
0.3447285262855501,0.004123954638856
0.3734559034760126,0.0039996204044167
0.4021832806664751,0.0039965681110857
0.4309106578569376,0.0037541022134617
0.4596380350474001,0.0038239746177578
0.4883654122378627,0.0038476308308772
0.5170927894283252,0.0037205476914349
0.5458201666187876,0.0037728356403397
0.5745475438092502,0.0036652501297812
0.6032749209997127,0.0036549409087997
0.6320022981901752,0.0038611802429298
0.6607296753806376,0.0039047064089899
0.6894570525711002,0.0038509634803523
0.7181844297615627,0.0038824726249615
0.7469118069520252,0.0038857958934671
0.7756391841424878,0.0037438890861129
0.8043665613329503,0.0036873915051194
0.8330939385234127,0.0039059097419144
0.8618213157138752,0.0040933797357478
0.8905486929043378,0.0041105957364303
0.9192760700948004,0.004168434158009
0.9480034472852628,0.0042968806630776
0.9767308244757252,0.00421781440526
1.0054582016661875,0.0042124468810679
1.0341855788566503,0.0042765397681459
1.062912956047113,0.0039613873495952
1.0916403332375753,0.0037779533379369
1.1203677104280378,0.0038635261113286
1.1490950876185004,0.0035440196305782
1.1778224648089628,0.0036526057074975
1.2065498419994254,0.0037334015811875
1.235277219189888,0.0036926305320471
1.2640045963803503,0.0038372410183231
1.292731973570813,0.003949372980951
1.3214593507612753,0.0038558002725383
1.350186727951738,0.0038819068269589
1.3789141051422005,0.0038246436543753
1.4076414823326628,0.0037328038680931
1.4363688595231254,0.003847501463766
1.465096236713588,0.0037844697181514
1.4938236139040504,0.0037096900365637
1.522550991094513,0.00401384715343
1.5512783682849756,0.0035543279298744
1.580005745475438,0.0039552082110149
1.6087331226659003,0.004079193905876
1.637460499856363,0.0038760737498983
1.6661878770468257,0.0037819805128692
1.694915254237288,0.0037669665220332
1.7236426314277504,0.003754013238064
1.752370008618213,0.0038425450616907
1.7810973858086756,0.0039525581063264
1.809824762999138,0.0038781910723912
1.8385521401896008,0.0039207501717693
1.8672795173800631,0.003736520333509
1.8960068945705255,0.0038220275612306
1.924734271760988,0.0036982004015441
1.9534616489514507,0.0037201469080051
1.982189026141913,0.003862607795753
2.010916403332375,0.0037095046435778
2.0396437805228382,0.0037699252680414
2.0683711577133006,0.0037861539504943
2.097098534903763,0.0037914475081775
2.125825912094226,0.0041252147596911
2.154553289284688,0.0037173987894361
2.1832806664751505,0.0037636829271045
2.2120080436656133,0.0040188776311856
2.2407354208560757,0.0040882100892381
2.269462798046538,0.0039933279534855
2.298190175237001,0.0040756966463047
2.3269175524274632,0.0039036268634649
2.3556449296179256,0.003946368406318
2.3843723068083884,0.0039822504120672
2.4130996839988508,0.0038423987028544
2.441827061189313,0.0037352348121064
2.470554438379776,0.0036618055610387
2.4992818155702383,0.0039323761796296
2.5280091927607007,0.0041629436636089
2.5567365699511635,0.004168629856953
2.585463947141626,0.0040457034579007
2.614191324332088,0.0040060584932131
2.6429187015225506,0.0040502661936419
2.6716460787130134,0.0040429993264534
2.700373455903476,0.004429118681353
2.729100833093938,0.0043694860730803
2.757828210284401,0.0034266987318515
2.7865555874748633,0.0040390792766747
2.8152829646653257,0.0039461699558979
2.8440103418557885,0.0036237793087787
2.872737719046251,0.0037093573530643
2.9014650962367132,0.0038721240153554
2.930192473427176,0.0038618132993852
2.9589198506176384,0.0039480924553895
2.9876472278081008,0.0039144209938416
3.0163746049985636,0.0039859165385
3.045101982189026,0.0039620874852499
3.0738293593794883,0.0040161668911185
3.102556736569951,0.0040924821862298
3.1312841137604135,0.0039868064150576
3.160011490950876,0.0038593749797901
3.1887388681413387,0.0037805616250159
3.217466245331801,0.0036925744088574
3.2461936225222634,0.0036421471866093
3.274920999712726,0.0036680556728476
3.303648376903189,0.0036716458066409
3.332375754093651,0.0035554676584576
3.3611031312841133,0.003423560152587
3.389830508474576,0.0038278677767166
3.4185578856650385,0.0038049119498172
3.447285262855501,0.0036268795414687
3.4760126400459637,0.0035438545078978
3.504740017236426,0.0035796413441999
3.5334673944268884,0.0035977783367155
3.562194771617351,0.0035603303491888
3.5909221488078136,0.0035273054491452
3.619649525998276,0.0034942179727816
3.648376903188739,0.0034678827863891
3.677104280379201,0.003504515440323
3.705831657569663,0.0035993780645839
3.7345590347601263,0.0035757079187471
3.7632864119505887,0.0036794688056294
3.792013789141051,0.0039287885637835
3.820741166331514,0.0038777486596269
3.849468543521976,0.0040095464772696
3.8781959207124386,0.0041318460307676
3.9069232979029014,0.0039495340854825
3.935650675093364,0.0040029822169477
3.964378052283826,0.004146068846463
3.993105429474289,0.004067779407233
4.021832806664751,0.0039213948200532
4.050560183855214,0.0041107381021402
4.0792875610456765,0.0038440126416029
4.108014938236138,0.0038582834260505
4.136742315426601,0.0039976161911449
4.165469692617064,0.0040229795207926
4.194197069807526,0.0039233752402656
4.222924446997989,0.00380635384672
4.251651824188452,0.0037850675701173
4.2803792013789135,0.0037824788965644
4.309106578569376,0.0037556740247164
4.337833955759839,0.0037233076760421
4.366561332950301,0.0037643317887424
4.395288710140764,0.0037410715929058
4.424016087331227,0.0038918558127155
4.452743464521689,0.0041084438019747
4.481470841712151,0.0041852319445987
4.510198218902614,0.0045143238252778
4.538925596093076,0.0046847023391154
4.567652973283539,0.0030470350664445
4.596380350474002,0.0043640695342766
4.625107727664464,0.0072748386769456
4.6538351048549265,0.0082465231905179
4.682562482045389,0.0137229050857798
4.711289859235851,0.0169447833223532
4.740017236426314,0.017372535944377
4.768744613616777,0.0175778668190508
4.797471990807239,0.0179930271935168
4.8261993679977016,0.0177959109410875
4.854926745188164,0.0176082280578283
4.883654122378626,0.0164984117011067
4.912381499569089,0.0136059465697385
4.941108876759552,0.0094203529569512
4.969836253950014,0.0058374876283426
4.998563631140477,0.0042455239191154
5.0272910083309394,0.0038882951121309
5.056018385521401,0.0040775188336253
5.084745762711864,0.0041869459339826
5.113473139902327,0.0041660641178677
5.142200517092789,0.0041016527889066
5.170927894283252,0.0039488341494758
5.199655271473714,0.0038980922459695
5.2283826486641765,0.0039114298744022
5.257110025854639,0.0040050896176995
5.285837403045101,0.0040492353497747
5.314564780235564,0.0038233991881014
5.343292157426027,0.0037127109034856
5.372019534616489,0.0037439972879862
5.4007469118069515,0.0037210085428192
5.429474288997414,0.0038604652570095
5.458201666187876,0.0038162175671139
5.486929043378339,0.0036781891121716
5.515656420568802,0.0037360420433247
5.544383797759264,0.0038600732833217
5.573111174949727,0.0037803407006545
5.601838552140189,0.003756170597792
5.630565929330651,0.0036622049349786
5.659293306521114,0.003564305973884
5.688020683711577,0.0035501265172067
5.716748060902039,0.0034856429546603
5.745475438092502,0.0034012489175218
5.7742028152829645,0.0034241422816177
5.8029301924734265,0.003589838986754
5.831657569663889,0.0036272404765793
5.860384946854352,0.0034680866770069
5.889112324044814,0.0036785578954601
5.917839701235277,0.0042398287205383
5.94656707842574,0.0045976688706953
5.9752944556162015,0.0045843573759919
6.004021832806664,0.0046727153098901
6.032749209997127,0.0047382694370186
6.061476587187589,0.0046683426192401
6.090203964378052,0.0046219218938107
6.118931341568515,0.0046468307919373
6.147658718758977,0.0046517304474853
6.176386095949439,0.0044252838517629
6.205113473139902,0.0040558279299413
6.233840850330364,0.0038273044541108
6.262568227520827,0.0039743871849806
6.29129560471129,0.003884761479943
6.320022981901752,0.0034302387981898
6.3487503590922145,0.0037541012361214
6.377477736282677,0.0037399989083072
6.406205113473139,0.0037958725542915
6.434932490663602,0.0039385600146822
6.463659867854065,0.0037761365401107
6.492387245044527,0.003745157990617
6.52111462223499,0.0039591970662449
6.549841999425452,0.0040496524210113
6.578569376615914,0.0039202898160802
6.607296753806377,0.0040016169023512
6.636024130996839,0.0040868433989772
6.664751508187302,0.0041794314920675
6.693478885377765,0.0042584622045041
6.722206262568227,0.0038151127525239
6.750933639758689,0.0041087810793008
6.779661016949152,0.0042298769205088
6.808388394139614,0.0041862387432817
6.837115771330077,0.0041139701846756
6.86584314852054,0.0039068279142335
6.894570525711002,0.0040063579911357
6.9232979029014645,0.0039643197627051
6.952025280091927,0.0040746948733083
6.980752657282389,0.0039078965736734
7.009480034472852,0.0038543252739182
7.038207411663315,0.0040110818084558
7.066934788853777,0.0040895181548428
7.09566216604424,0.004147907267095
7.124389543234702,0.0041788652109758
7.153116920425164,0.0042783004158253
7.181844297615627,0.0042695895908255
7.21057167480609,0.0040677957283149
7.239299051996552,0.0039795286537582
7.268026429187015,0.0037567231223781
7.296753806377477,0.0036979843906819
7.325481183567939,0.0041535938177221
7.354208560758402,0.0032707494009561
7.382935937948865,0.003521933430815
7.411663315139327,0.0032930528813349
7.44039069232979,0.0040760970098469
7.469118069520253,0.0039728901415728
7.497845446710715,0.0031205925270382
7.526572823901177,0.0035754959340414
7.55530020109164,0.0035435679889534
7.584027578282102,0.0035365044173063
7.612754955472565,0.0038225336643365
7.641482332663028,0.0038374647874014
7.67020970985349,0.003802685826013
7.698937087043952,0.0040894379100015
7.727664464234415,0.0039658130159563
7.756391841424877,0.0035632844954537
7.78511921861534,0.0046725677385663
7.813846595805803,0.0040693492164684
7.842573972996265,0.0039076821924813
7.871301350186728,0.0039769906406879
7.90002872737719,0.0040695705807134
7.928756104567652,0.0039995138129822
7.957483481758115,0.0038813827351847
7.986210858948578,0.0040453893893155
8.01493823613904,0.004013550400695
8.043665613329502,0.0038796657022887
8.072392990519965,0.0039472465544917
8.101120367710427,0.0041097409124326
8.12984774490089,0.0039541157799237
8.158575122091353,0.0039475853454115
8.187302499281815,0.0039335475801049
8.216029876472277,0.0036516556836118
8.24475725366274,0.003782660247002
8.273484630853202,0.0039462457930143
8.302212008043664,0.0037746632023099
8.330939385234128,0.0037284791970364
8.35966676242459,0.0038174114306995
8.388394139615052,0.0037049231631129
8.417121516805516,0.0036542587442337
8.445848893995977,0.0037285421796029
8.47457627118644,0.0035817215360232
8.503303648376903,0.0033891797644146
8.532031025567365,0.0034652034838462
8.560758402757827,0.0035070126377775
8.58948577994829,0.0036087948475529
8.618213157138753,0.0038224997903289
8.646940534329215,0.0038503154552553
8.675667911519678,0.0037784297377058
8.70439528871014,0.0037063238555211
8.733122665900602,0.0038754631092376
8.761850043091066,0.0038491315485127
8.790577420281528,0.0036114068013853
8.81930479747199,0.0035209578709878
8.848032174662453,0.0036045587596368
8.876759551852915,0.0035581624746355
8.905486929043377,0.0034436522173907
8.93421430623384,0.003619062457844
8.962941683424303,0.0032075689568912
8.991669060614765,0.0033705887738831
9.020396437805228,0.0035827022965898
9.04912381499569,0.0035076823279944
9.077851192186152,0.0037715022323177
9.106578569376616,0.0040182221348182
9.135305946567078,0.0038456919365619
9.16403332375754,0.0039663312533166
9.192760700948003,0.0045170505092769
9.221488078138464,0.0043149288156531
9.250215455328927,0.0044372646468532
9.278942832519393,0.004804612627885
9.307670209709851,0.0045287577018502
9.336397586900317,0.0050114751366271
9.36512496409078,0.0081646679065143
9.39385234128124,0.0121932905529306
9.422579718471702,0.0147839896079239
9.451307095662166,0.0154336088834119
9.480034472852628,0.0151290356793062
9.50876185004309,0.015067004926614
9.537489227233554,0.0154407871825
9.566216604424016,0.0146643955998134
9.594943981614476,0.0122129273434862
9.62367135880494,0.009627912051218199
9.652398735995405,0.0076440939058841995
9.681126113185863,0.007234960939916099
9.709853490376329,0.0050559201218698
9.73858086756679,0.0051584501602624
9.767308244757253,0.0037104620567758
9.796035621947716,0.004078792415242
9.824762999138178,0.0041671573845809
9.85349037632864,0.0037585652500674
9.882217753519104,0.0038716462280353
9.910945130709566,0.0038957523960762
9.939672507900028,0.003816356264143
9.968399885090491,0.00401574444036
9.997127262280951,0.003948843560648
10.025854639471415,0.0038136542088418
10.05458201666188,0.0039479171290545
10.08330939385234,0.0037342135754231
10.112036771042805,0.0033887105328727
10.140764148233266,0.003485129663739
10.169491525423728,0.0034333433254201
10.19821890261419,0.0031985044380679
10.226946279804654,0.0033304970374468
10.255673656995116,0.0037043641643937
10.284401034185578,0.003563952312366
10.31312841137604,0.0038059549270399
10.341855788566503,0.0039302319427052
10.370583165756964,0.0038071392070113
10.399310542947427,0.0037605683224466
10.428037920137893,0.0037353350153343
10.456765297328351,0.0036543957526528
10.485492674518817,0.0036071893808591
10.51422005170928,0.0037713771536167
10.54294742889974,0.0036947062631888
10.571674806090202,0.003665800363236
10.600402183280666,0.0039176178742765
10.629129560471128,0.00398126427485
10.65785693766159,0.0039662186686643
10.686584314852054,0.004029990861263
10.715311692042516,0.0038911768637312
10.744039069232976,0.003714913533854
10.77276644642344,0.0037446934908071
10.801493823613905,0.0036387545223846
10.830221200804363,0.0034626012153807
10.858948577994829,0.0034207338744799
10.88767595518529,0.0033653583114547
10.916403332375753,0.0034031154775147
10.945130709566216,0.0034341144587885
10.973858086756678,0.0033676097638602
11.00258546394714,0.0033492963799767
11.031312841137604,0.0033915047891174
11.060040218328066,0.0034460673489072
11.088767595518528,0.0034611353169241
11.117494972708991,0.003453921885095
11.146222349899451,0.0034727945461177
11.174949727089915,0.0034829904398235
11.20367710428038,0.0030571494309202
11.23240448147084,0.003243531954358
11.261131858661305,0.0036136675808354
11.289859235851766,0.0031582277577282
11.318586613042228,0.0031759337588943
11.34731399023269,0.0033716314157227
11.376041367423154,0.0034799147617146
11.404768744613616,0.0033912875756003
11.433496121804078,0.0033031833839436
11.462223498994542,0.0031977517399028
11.490950876185003,0.003224658149652
11.519678253375464,0.0033509468693466
11.548405630565927,0.0033354363423298
11.577133007756393,0.0033981218739806
11.605860384946851,0.0034638216191773
11.634587762137317,0.0034436970259035
11.66331513932778,0.0034477738936549
11.69204251651824,0.0033113966631542
11.720769893708704,0.0030762993991759
11.749497270899166,0.0031211212880653
11.778224648089628,0.0032561064352812
11.806952025280092,0.0030199805932707
11.835679402470554,0.0029684059387422
11.864406779661016,0.0032939464323387
11.89313415685148,0.00317874269626
11.92186153404194,0.0033559886653377
11.950588911232405,0.0034068271591566
11.979316288422869,0.003396343772059
12.008043665613329,0.0034475562688058
12.03677104280379,0.0034227280116727
12.065498419994254,0.0034832599447262
12.094225797184716,0.003430235003874
12.122953174375178,0.0032699275183963
12.151680551565642,0.0033175598696096
12.180407928756104,0.0035192103248182
12.209135305946566,0.0032608624074482
12.23786268313703,0.0033556085075769
12.266590060327491,0.0033471972515459
12.295317437517951,0.0033011196153527
12.324044814708415,0.0033622199050559
12.35277219189888,0.0033598513059964
12.38149956908934,0.0033701579972367
12.410226946279804,0.0035096922897031
12.438954323470266,0.0033261449457836
12.467681700660728,0.0032451858281531
12.496409077851192,0.0034275136609605
12.525136455041654,0.0035168882805013
12.553863832232116,0.0034121290392076
12.58259120942258,0.0034088604994905
12.611318586613042,0.0033377006901704
12.640045963803503,0.0033824920734449
12.668773340993967,0.0034418836174646
12.697500718184427,0.0033503500762396
12.726228095374893,0.0034912318778502
12.754955472565356,0.0034209354124127
12.783682849755817,0.003577589323688
12.81241022694628,0.003841496633639
12.841137604136742,0.0037986167671686
12.869864981327204,0.0037184269078862
12.898592358517666,0.003696532384298
12.92731973570813,0.0036620030719392
12.956047112898592,0.0035222889807815
12.984774490089054,0.0036211855240265
13.013501867279516,0.0038905964998567
13.04222924446998,0.0033544270034103
13.07095662166044,0.0033564713061041
13.099683998850905,0.0035129195094692
13.128411376041369,0.003351349269855
13.157138753231829,0.0034553115840724
13.185866130422292,0.0036481469903555
13.214593507612754,0.0035748192385673
13.243320884803216,0.0031730509618776
13.272048261993678,0.0040553536495743
13.300775639184142,0.0065038780324488
13.329503016374604,0.0075120033763152
13.358230393565066,0.0083969085420882
13.38695777075553,0.0091510085361252
13.415685147945991,0.0090397106682849
13.444412525136451,0.0090064901092736
13.473139902326915,0.0088208048012615
13.50186727951738,0.0104617433166905
13.53059465670784,0.0080230362579975
13.559322033898304,0.0039301479403937
13.588049411088766,0.0040520982505872
13.616776788279228,0.0034001693703622
13.645504165469692,0.0031590645175459
13.674231542660154,0.0033475976327998
13.702958919850616,0.0034419848688828
13.73168629704108,0.0032280207365289
13.76041367423154,0.0036371154753517
13.789141051422003,0.0034977850066248
13.817868428612467,0.0034103473840431
13.846595805802927,0.0034627852147863
13.875323182993393,0.0033985641559248
13.904050560183856,0.0034832387720526
13.932777937374317,0.003456788000401
13.96150531456478,0.0033311641492759
13.990232691755242,0.003440379824543
14.018960068945704,0.003254491858458
14.047687446136166,0.0031746203828375
14.07641482332663,0.0032868668398474
14.105142200517092,0.0033038420428839
14.133869577707554,0.0033582753734188
14.162596954898016,0.0034377849081233
14.19132433208848,0.0035024352059711
14.22005170927894,0.0035112974680775
14.248779086469405,0.0034203302441231
14.277506463659869,0.0034191102365356
14.306233840850329,0.0034389271192649
14.334961218040792,0.0034506019005878
14.363688595231254,0.0035697722751465
14.392415972421716,0.0034907584444286
14.42114334961218,0.0033650341612065
14.449870726802642,0.0033431586645971
14.478598103993104,0.003433872361425
14.507325481183567,0.0034386908021542
14.53605285837403,0.0034561019820192
14.564780235564491,0.0034636051868286
14.593507612754957,0.0033062527252275
14.622234989945415,0.0032502450656632
14.65096236713588,0.0032890973904001
14.679689744326344,0.0031827613922751
14.708417121516804,0.0033527291659751
14.737144498707266,0.0033323365609816
14.76587187589773,0.003343185008397
14.794599253088192,0.0032783191666492
14.823326630278654,0.0032037794440948
14.852054007469118,0.0033579012948904
14.88078138465958,0.0034697970182882
14.90950876185004,0.0033181026630784
14.938236139040503,0.0035063739425534
14.966963516230969,0.003402220127006
14.995690893421427,0.0034425420759518
15.024418270611893,0.003543892371959
15.053145647802356,0.0034917767283149
15.081873024992817,0.0035113627791933
15.11060040218328,0.0033491258857086
15.139327779373742,0.0035331672475905
15.168055156564204,0.0035216392775276
15.196782533754668,0.0033927168555648
15.22550991094513,0.0034883918610807
15.254237288135592,0.0036637407387363
15.282964665326055,0.0036559736808448
15.311692042516515,0.0038973437546313
15.34041941970698,0.0035242535230481
15.369146796897445,0.0035223477861057
15.397874174087905,0.0034305750632934
15.426601551278369,0.003431495651699
15.45532892846883,0.0034714861773805
15.484056305659292,0.0033588757060189
15.512783682849754,0.0033472053871268
15.541511060040218,0.0033548773096645
15.57023843723068,0.0034407845248251
15.598965814421142,0.0036095973017631
15.627693191611606,0.0037607342990316
15.656420568802067,0.0036444957105166
15.68514794599253,0.0036017400053453
15.713875323182991,0.0036177391316244
15.742602700373457,0.0036207035915294
15.771330077563915,0.003647486646293
15.80005745475438,0.0034944416323324
15.828784831944844,0.0033151503636964
15.857512209135304,0.0036251247515605
15.886239586325768,0.0035014119468977
15.91496696351623,0.003417797665652
15.943694340706692,0.0035576613561803
15.972421717897156,0.0035807553991398
16.001149095087616,0.0035578000136441
16.02987647227808,0.0035230874474563
16.058603849468543,0.0034718340439716
16.087331226659003,0.0033754382589492
16.116058603849467,0.0032342066084877
16.14478598103993,0.0032834402838024
16.17351335823039,0.0036275773795009
16.202240735420855,0.0034305584107941
16.23096811261132,0.0034647309766894
16.25969548980178,0.0035491656451882
16.288422866992242,0.0035510810911263
16.317150244182706,0.003877929276864
16.345877621373166,0.0040833651666291
16.37460499856363,0.0039501250908736
16.403332375754093,0.0039780982955566
16.432059752944554,0.0040171666225013
16.460787130135017,0.0038297917581187
16.48951450732548,0.0039095381094262
16.51824188451594,0.0038643385262204
16.546969261706405,0.0035707759693615
16.57569663889687,0.0033390471801052
16.60442401608733,0.003400940993672
16.633151393277792,0.0034476850131895
16.661878770468256,0.0035139451854584
16.690606147658716,0.0035461903893392
16.71933352484918,0.0033090757715581
16.748060902039644,0.0033150616748934
16.776788279230104,0.0040850383937958
16.805515656420567,0.0034868506911026
16.83424303361103,0.0026252732540794
16.86297041080149,0.0054156362934526
16.891697787991955,0.0103081095084376
16.92042516518242,0.0108427482467786
16.94915254237288,0.0111627319729022
16.977879919563343,0.0111353577418659
17.006607296753806,0.010873571769936
17.035334673944266,0.0116612697734972
17.06406205113473,0.0114221484028893
17.092789428325194,0.0077858009009446
17.121516805515654,0.0067277376758666
17.150244182706118,0.0056817353007688
17.17897155989658,0.0045422515261028
17.20769893708704,0.0036680429218493
17.236426314277505,0.0032495492533875
17.26515369146797,0.0033471391335888
17.29388106865843,0.0034359528344271
17.322608445848893,0.003548121927388
17.351335823039356,0.0034907724235141
17.380063200229817,0.0033816719439829
17.40879057742028,0.0034549976465893
17.437517954610744,0.0035916612374127
17.466245331801204,0.0037281852217653
17.494972708991668,0.0037325029812093
17.52370008618213,0.0034300961508016
17.55242746337259,0.0035229429980626
17.581154840563055,0.0035551420919841
17.60988221775352,0.0035055560006209
17.63860959494398,0.0034476291203948
17.667336972134443,0.0033737712738966
17.696064349324907,0.0032707242717242
17.724791726515367,0.0032193196759498
17.75351910370583,0.0033769608600206
17.782246480896294,0.0031528099528755
17.810973858086754,0.0031084289336883
17.839701235277218,0.0032731563892873
17.86842861246768,0.0033181418025191
17.897155989658142,0.0033899185820376
17.925883366848606,0.0031509661822751
17.95461074403907,0.0034719672822336
17.98333812122953,0.0034018704056141
18.012065498419993,0.0033685080373328
18.040792875610457,0.0033341095711401
18.069520252800917,0.0032258945836794
18.09824762999138,0.0033169805969641
18.126975007181844,0.0033442604770242
18.155702384372304,0.0033543207778213
18.184429761562768,0.0033533414218462
18.213157138753232,0.0032935932839291
18.241884515943692,0.0032389919158322
18.270611893134156,0.0032425219816818
18.29933927032462,0.0032633605363975
18.32806664751508,0.0033214274818853
18.356794024705543,0.0034386675694578
18.385521401896007,0.0029323309722174
18.414248779086467,0.0031530154306839
18.44297615627693,0.0031664448200524
18.47170353346739,0.0031823957063649
18.500430910657855,0.0031734724234539
18.52915828784832,0.0031315638163251
18.557885665038786,0.0030857187746495
18.58661304222924,0.0030581025781234
18.615340419419702,0.0029608124070689
18.64406779661017,0.0032186962767298
18.67279517380063,0.0032767998007409
18.701522550991093,0.0034330966767533
18.730249928181557,0.0033866842471867
18.758977305372017,0.0032543862886263
18.78770468256248,0.0034524221521449
18.816432059752945,0.0034259671726145
18.845159436943405,0.0031760200684264
18.87388681413387,0.0031038089290842
18.902614191324332,0.0030844395420919
18.931341568514792,0.0030756260933179
18.960068945705256,0.0031374055521178
18.98879632289572,0.0031283144956444
19.01752370008618,0.0030674537169087
19.046251077276644,0.0031498857623756
19.074978454467107,0.0032458054667817
19.103705831657567,0.0032056156665305
19.13243320884803,0.0030380302840886
19.161160586038495,0.0032637397511039
19.189887963228955,0.0031999144217108
19.21861534041942,0.00312212724812
19.24734271760988,0.0032864671055909
19.276070094800343,0.0032768426084944
19.30479747199081,0.0032207275984702
19.33352484918127,0.0032493601322781
19.36225222637173,0.0032878647688426
19.390979603562194,0.003305979779533
19.419706980752657,0.0032511425991363
19.44843435794312,0.0030823058885124
19.47716173513358,0.0032884615237907
19.505889112324045,0.0034222066818569
19.534616489514505,0.0033333426656768
19.56334386670497,0.0034724123798151
19.592071243895433,0.0035050143081201
19.620798621085893,0.0034883417012275
19.649525998276356,0.0034987673702782
19.67825337546682,0.0033602967497769
19.70698075265728,0.0032732992275044
19.735708129847744,0.0035351996413833
19.764435507038208,0.003205807391159
19.793162884228668,0.0030379436205123
19.82189026141913,0.0034351569738724
19.850617638609595,0.0034467628906328
19.879345015800055,0.0033313427873945
19.90807239299052,0.0033934473195009
19.936799770180983,0.0034686663332824
19.965527147371443,0.0035333129763209
19.994254524561907,0.0033576051547786
20.02298190175237,0.003309898010711
20.05170927894283,0.003273742299145
20.080436656133298,0.0031430779135106
20.10916403332376,0.0033221781447624
20.137891410514214,0.0034531450270336
20.16661878770468,0.0033463631969284
20.195346164895145,0.0033272643028729
20.224073542085605,0.003406462585009
20.25280091927607,0.0034018350020877
20.281528296466533,0.0034208533052691
20.310255673656993,0.0034750539754962
20.338983050847457,0.0034626398158678
20.36771042803792,0.0034115597155763
20.39643780522838,0.0033635565444689
20.425165182418844,0.0033100384955282
20.453892559609308,0.0032816416813495
20.482619936799768,0.0033335083210812
20.511347313990232,0.0040116680914216
20.540074691180696,0.0026773698830487
20.568802068371156,0.003093216462064
20.59752944556162,0.0033490295727087
20.62625682275208,0.0032603162492758
20.654984199942543,0.0033345117562209
20.683711577133007,0.0035370140513771
20.712438954323467,0.0036026087269082
20.74116633151393,0.0031001808711535
20.76989370870439,0.0042417000079426
20.798621085894855,0.0061900696211319
20.82734846308532,0.0083930362146888
20.856075840275786,0.0108889350180687
20.88480321746624,0.0112087522459962
20.913530594656702,0.0122549847978734
20.94225797184717,0.0123487102047669
20.97098534903763,0.0119201638211457
20.999712726228093,0.0121234071918638
21.028440103418557,0.0118651204593879
21.057167480609017,0.0078185035864891
21.08589485779948,0.0058931812819354
21.114622234989945,0.0053444849712238
21.143349612180405,0.0043538754707846
21.17207698937087,0.0033765536128107
21.200804366561332,0.0035395245271718
21.229531743751792,0.0037004803709539
21.258259120942256,0.0037037393417348
21.28698649813272,0.0036584716353891
21.31571387532318,0.0035444669287614
21.344441252513644,0.0034931320390886
21.373168629704107,0.0034903871100183
21.401896006894567,0.0034206033056511
21.43062338408503,0.0033368699974426
21.459350761275495,0.0033449015106169
21.488078138465955,0.003560135866506
21.51680551565642,0.003370876236536
21.54553289284688,0.0032698264842064
21.574260270037342,0.0032188366763514
21.60298764722781,0.003450134689485
21.63171502441827,0.0032403560611463
21.66044240160873,0.0033188449681101
21.689169778799194,0.0031774806322383
21.717897155989657,0.0031715598238835
21.74662453318012,0.0032155782763951
21.77535191037058,0.0032299700698567
21.804079287561045,0.0033228451838863
21.832806664751505,0.0031412670448196
21.86153404194197,0.0030875310431402
21.890261419132433,0.0031679693199857
21.918988796322893,0.0031845994888598
21.947716173513356,0.0032585442409215
21.97644355070382,0.003387932676082
22.00517092789428,0.0033112700383541
22.033898305084744,0.0031983828032874
22.062625682275208,0.0032888147174292
22.091353059465668,0.0034529083171986
22.12008043665613,0.0033273009637478
22.148807813846595,0.003134404772101
22.177535191037055,0.003253217866458
22.20626256822752,0.0032019891429299
22.234989945417983,0.003182057918207
22.263717322608443,0.0031439048219735
22.292444699798907,0.003084456649986
22.32117207698937,0.0032512990714771
22.34989945417983,0.0032259532107337
22.378626831370298,0.0031528532430922
22.40735420856076,0.0031424637539426
22.436081585751214,0.0031389471192476
22.46480896294168,0.003171131719777
22.493536340132145,0.0032068355202459
22.522263717322605,0.0031696165264413
22.55099109451307,0.0031334201616128
22.579718471703533,0.0031507220009475
22.608445848893993,0.003186801337495
22.637173226084457,0.0032192387339633
22.66590060327492,0.0032256412736888
22.69462798046538,0.0031591024687397
22.723355357655844,0.0030893532681003
22.752082734846308,0.0031499611443562
22.780810112036768,0.0033438553669797
22.809537489227232,0.0033484879054153
22.838264866417695,0.0033940166486097
22.866992243608156,0.0034997405962443
22.89571962079862,0.0034532622382066
22.924446997989083,0.0034120503759591
22.953174375179543,0.0036227898893517
22.981901752370007,0.0037459566054982
23.01062912956047,0.0036946253673542
23.03935650675093,0.0037378966127646
23.06808388394139,0.0035671112380924
23.096811261131855,0.0036539733252351
23.12553863832232,0.0037230907871541
23.154266015512786,0.0035663514323574
23.18299339270325,0.0034019610727718
23.211720769893702,0.0032630089164408
23.24044814708417,0.0033168501982825
23.269175524274633,0.0034857641214636
23.297902901465093,0.0031430770361261
23.326630278655557,0.0032432166699065
23.35535765584602,0.0032747988721645
23.38408503303648,0.0032562932600112
23.412812410226945,0.0032665023868805
23.44153978741741,0.0031932285528574
23.47026716460787,0.0032108523931719
23.498994541798332,0.0032999281227131
23.527721918988796,0.0030286091590872
23.556449296179256,0.0028842691519389
23.58517667336972,0.0037020529125403
23.613904050560183,0.00272896791969
23.642631427750644,0.0027995442918581
23.671358804941107,0.0034703660789185
23.70008618213157,0.0033786414468632
23.72881355932203,0.0033344221469474
23.757540936512495,0.0034182332534205
23.78626831370296,0.003486389744851
23.81499569089342,0.0035141746580265
23.84372306808388,0.0035166454197385
23.872450445274342,0.0035074357694983
23.90117782246481,0.003452882703548
23.92990519965527,0.0033618187186816
23.958632576845737,0.0032968021512579
23.987359954036194,0.003324640911353
24.016087331226657,0.003372128555849
24.04481470841712,0.0033224891543292
24.07354208560758,0.0033565229357456
24.102269462798045,0.0034045153532872
24.13099683998851,0.0035172599536222
24.15972421717897,0.0036890596329936
24.188451594369432,0.0037302935664409
24.217178971559896,0.0035712765911786
24.245906348750356,0.003690669472257
24.27463372594082,0.0035885680693874
24.303361103131284,0.003367450783148
24.332088480321744,0.0033791839164646
24.360815857512208,0.0036663778220539
24.38954323470267,0.0033950203273453
24.41827061189313,0.0032617273181466
24.446997989083595,0.00357740038974
24.47572536627406,0.0034491487225928
24.50445274346452,0.0034063373231888
24.533180120654983,0.0036919575024837
24.561907497845446,0.0035443537256596
24.590634875035907,0.0035318833361724
24.61936225222637,0.0036631479771059
24.64808962941683,0.0037574420155711
24.676817006607298,0.003857716286723
24.70554438379776,0.0040336895416208
24.73427176098822,0.0040747511925161
24.76299913817868,0.0032744639173527
24.791726515369145,0.0033676476806506
24.82045389255961,0.006893999134563
24.84918126975007,0.0091674132688738
24.877908646940533,0.010888541838207
24.906636024130997,0.011669368114775
24.935363401321457,0.0116361746340628
24.96409077851192,0.0116656222847325
24.992818155702384,0.0116481110686793
25.021545532892844,0.0117098342378505
25.050272910083308,0.0097683948578979
25.07900028727377,0.0066707443005572
25.10772766446423,0.0043831003738477
25.136455041654695,0.0035114388898773
25.16518241884516,0.0034980518296319
25.19390979603562,0.0033572741840719
25.222637173226083,0.0034945735530358
25.251364550416547,0.0035474037202386
25.280091927607007,0.0035138188334882
25.30881930479747,0.0034828745035464
25.337546681987934,0.00355259745914
25.36627405917839,0.0036663717020942
25.395001436368855,0.0037304255215223
25.42372881355932,0.0037085113771172
25.452456190749785,0.0038322049760078
25.48118356794025,0.0036515298241945
25.50991094513071,0.0037209338003889
25.53863832232117,0.0037075862447589
25.567365699511633,0.0036181046399284
25.596093076702097,0.0037067353890148
25.624820453892557,0.0035146611556735
25.65354783108302,0.0033714108957491
25.682275208273484,0.0035199637906001
25.711002585463945,0.0034254730067114
25.73972996265441,0.0033440636272733
25.768457339844872,0.0033554862818
25.797184717035332,0.0032017143928229
25.825912094225796,0.0034304368101083
25.85463947141626,0.0033223241171731
25.88336684860672,0.0032374877324172
25.912094225797183,0.0033348253226099
25.940821602987647,0.0034145235327648
25.969548980178107,0.0034292771040159
25.99827635736857,0.0034232731928142
26.027003734559035,0.0034552035507544
26.055731111749495,0.0035379102541996
26.08445848893996,0.0036050392806102
26.113185866130426,0.0036185086560828
26.14191324332088,0.0036490331407038
26.170640620511342,0.0035791600731468
26.19936799770181,0.0034925278039407
26.22809537489227,0.0035337955979836
26.256822752082737,0.0036652956699059
26.285550129273197,0.0033330644931888
26.314277506463657,0.0033864846965429
26.34300488365412,0.0034688358983199
26.371732260844585,0.0035301207578549
26.400459638035045,0.0036196722397928
26.42918701522551,0.0034978598352905
26.457914392415972,0.0034387471706045
26.486641769606432,0.0034071247086651
26.515369146796896,0.0035631764336232
26.544096523987356,0.0035396279862641
26.57282390117782,0.0033000970506598
26.601551278368284,0.0034976312216419
26.630278655558744,0.0035217054666523
26.659006032749208,0.0034857041531147
26.68773340993967,0.0034683905810155
26.71646078713013,0.003459023188964
26.745188164320595,0.0033552818704146
26.77391554151106,0.0032875137399921
26.80264291870152,0.0035121007001093
26.831370295891983,0.0037400913570162
26.860097673082446,0.0037053447100317
26.888825050272903,0.0036679144293522
26.91755242746337,0.0036582110285844
26.94627980465383,0.0036304210021382
26.975007181844298,0.0036673132560854
27.00373455903476,0.0036382279098113
27.03246193622522,0.0032688437503623
27.06118931341568,0.0030789600887502
27.089916690606145,0.0031824163522197
27.11864406779661,0.003214099737906
27.14737144498707,0.0032334409412849
27.176098822177533,0.00322514548063
27.204826199367997,0.0031813038067071
27.233553576558457,0.0032977165808345
27.26228095374892,0.0033332268241071
27.291008330939384,0.0032896837737551
27.319735708129844,0.0032566965020704
27.348463085320308,0.0033119898640616
27.37719046251077,0.0034239926764188
27.40591783970123,0.0034846363696153
27.434645216891695,0.0034615060568766
27.46337259408216,0.0033954058385095
27.49209997127262,0.0033071899815612
27.520827348463083,0.0034641258074256
27.549554725653547,0.0033444740047989
27.578282102844007,0.0032025938310482
27.60700948003447,0.0032928546303503
27.635736857224934,0.0031535428602199
27.66446423441539,0.0031213898030826
27.693191611605855,0.0031862211472068
27.72191898879632,0.0032052315756008
27.750646365986785,0.0031775288614307
27.77937374317725,0.0031386234518163
27.80810112036771,0.003123287212926
27.83682849755817,0.003168380768118
27.865555874748633,0.0032928941072275
27.894283251939097,0.0033989880357779
27.923010629129557,0.0033769556323946
27.95173800632002,0.003366279818679
27.980465383510484,0.0034433766983118
28.009192760700945,0.0035224926952705
28.03792013789141,0.0035553336868153
28.066647515081872,0.0034286852497302
28.095374892272332,0.0033278592997523
28.124102269462796,0.003293364765924
28.15282964665326,0.0033160151210058
28.18155702384372,0.0034808592051159
28.210284401034183,0.0033457733067022
28.239011778224647,0.0033055247994571
28.267739155415107,0.0033604343951164
28.29646653260557,0.0034329831321255
28.325193909796035,0.0037260923541904
28.353921286986495,0.0034428271305787
28.38264866417696,0.0034427606979487
28.411376041367426,0.0034913746194169
28.44010341855788,0.0034576997394225
28.468830795748342,0.0034575518700848
28.49755817293881,0.0034945458721253
28.52628555012927,0.0035237093792246
28.555012927319737,0.003492784680036
28.583740304510197,0.0034604928671598
28.612467681700657,0.0035103379500672
28.64119505889112,0.0035881142656097
28.669922436081585,0.0035750021527645
28.698649813272045,0.0034216273932774
28.72737719046251,0.0036047130895264
28.756104567652972,0.003799571883354
28.784831944843432,0.0030979210311036
28.813559322033896,0.0031754931751019
28.84228669922436,0.0015935946727469
28.87101407641482,0.0084208287762588
28.899741453605284,0.0098580082765967
28.928468830795747,0.0098917118565383
28.957196207986208,0.0098659717977424
28.98592358517667,0.0100853725264888
29.014650962367135,0.0094337607726193
29.043378339557595,0.0096859333370963
29.07210571674806,0.0114279363716879
29.10083309393852,0.0041559946089399
29.129560471128983,0.0058311445137769
29.158287848319446,0.0048469752322512
29.18701522550991,0.0033917289747843
29.21574260270037,0.0036202264550675
29.24446997989083,0.0036386302302923
29.273197357081298,0.0034167354461084
29.30192473427176,0.0034328269566125
29.33065211146222,0.003364725707522
29.359379488652685,0.0032991215951856
29.388106865843145,0.0033849469339698
29.41683424303361,0.0035152963052339
29.445561620224073,0.0035907115507864
29.474288997414533,0.003591455352953
29.503016374604996,0.0036236804290343
29.53174375179546,0.0036643337437487
29.56047112898592,0.0036405042411661
29.589198506176384,0.0036399545914118
29.617925883366848,0.003688978207611
29.646653260557308,0.0036551193220879
29.67538063774777,0.0035571457965764
29.704108014938235,0.0034816345131197
29.732835392128695,0.0035264201251423
29.76156276931916,0.0033643486116402
29.790290146509623,0.0032347532585022
29.819017523700083,0.003321758760154
29.847744900890547,0.0033384668694375
29.87647227808101,0.0033106235648187
29.90519965527147,0.0033012822528095
29.933927032461938,0.0033480188978946
29.9626544096524,0.0033882650325078
29.991381786842854,0.0033760690559197
30.02010916403332,0.0033696288428136
30.048836541223785,0.00342930361926
30.07756391841425,0.0035684051482193
30.10629129560471,0.0036742748938995
30.135018672795173,0.0035673061903977
30.163746049985633,0.0034643279691116
30.192473427176097,0.0034783440399635
30.22120080436656,0.0035043644173609
30.24992818155702,0.003578688424021
30.278655558747484,0.003663595405077
30.307382935937948,0.0036656748773968
30.336110313128408,0.0036239509668353
30.364837690318872,0.003597623429367
30.393565067509336,0.0036050914767834
30.422292444699796,0.0035704261306755
30.45101982189026,0.0035041326873539
30.479747199080723,0.0034759771445231
30.508474576271183,0.0033730768529195
30.537201953461647,0.0033647760679968
30.56592933065211,0.0036284712920332
30.59465670784257,0.0034113114894072
30.623384085033035,0.0033918754816047
30.6521114622235,0.0035002543315027
30.68083883941396,0.0035458239192738
30.709566216604426,0.0035725479933735
30.73829359379489,0.003565983435295
30.767020970985342,0.0034838222450421
30.79574834817581,0.0034356664491545
30.824475725366273,0.0034630921530438
30.853203102556733,0.0034656451499968
30.881930479747197,0.0034681650318596
30.91065785693766,0.0035621848806254
30.93938523412812,0.0035469147757974
30.968112611318585,0.0034186403709337
30.99683998850905,0.003396572449045
31.02556736569951,0.0036673777728079
31.054294742889972,0.0035387415068812
31.083022120080436,0.003550487708118
31.111749497270896,0.0036213290098181
31.14047687446136,0.0035836430786299
31.169204251651824,0.0035182685159159
31.197931628842284,0.0035194713734863
31.226659006032747,0.0033948277177485
31.25538638322321,0.003423849616325
31.28411376041367,0.0036715873171626
31.312841137604135,0.0035604253636343
31.3415685147946,0.0034489930671115
31.37029589198506,0.0037332436702287
31.39902326917552,0.0032711730128022
31.427750646365983,0.0036908707975755
31.456478023556446,0.0038430450855219
31.48520540074691,0.0037207140672197
31.513932777937377,0.0036160559670792
31.54266015512783,0.0037294882846323
31.571387532318298,0.0038782674865052
31.60011490950876,0.0039183504355116
31.62884228669922,0.0039011792553452
31.657569663889685,0.0038474822106314
31.68629704108015,0.0037757167183678
31.71502441827061,0.0037985366042787
31.743751795461073,0.0038617997978963
31.772479172651536,0.0038332034468253
31.801206549841996,0.0037436087668623
31.82993392703246,0.003583410990446
31.858661304222924,0.0033453037492823
31.887388681413384,0.0034930667683251
31.916116058603848,0.0035529718994919
31.94484343579431,0.0031187700800935
31.97357081298477,0.0033696255179631
32.00229819017523,0.003426672650884
32.031025567365695,0.0033800729998276
32.05975294455616,0.0033266920905369
32.08848032174662,0.0033706296760649
32.11720769893709,0.003353715251333
32.14593507612755,0.003257086100241
32.17466245331801,0.003312601657657
32.20338983050847,0.003180794671613
32.232117207698934,0.0033048936851641
32.2608445848894,0.0034516562979503
32.28957196207986,0.0034858186957358
32.318299339270325,0.0034854829575955
32.34702671646078,0.0032582799411563
32.375754093651246,0.0031457576182599
32.40448147084171,0.0034268372091243
32.43320884803217,0.0033296317355447
32.46193622522264,0.0032768095737998
32.4906636024131,0.0032461797588614
32.51939097960356,0.0031948913064892
32.54811835679402,0.0031535540778592
32.576845733984484,0.0033096424307374
32.60557311117495,0.0035070212057786
32.63430048836541,0.0034097701821983
32.663027865555875,0.0032198709522634
32.69175524274633,0.003348522225364
32.720482619936796,0.003491609211048
32.74920999712726,0.0033173888070546
32.77793737431772,0.0033657742480362
32.80666475150819,0.0034771254169496
32.83539212869865,0.0034582479948387
32.86411950588911,0.0039901357924791
32.89284688307957,0.0051030609032318
32.921574260270035,0.0077767519894044
32.9503016374605,0.0096916071426148
32.97902901465096,0.0091854248951588
33.007756391841426,0.0093846514743012
33.03648376903188,0.0095119516057171
33.065211146222346,0.0094103246154913
33.09393852341281,0.0091591895824497
33.12266590060327,0.0076165880475435
33.15139327779374,0.0054885002224813
33.1801206549842,0.0040530970479979
33.20884803217466,0.0036408843896221
33.23757540936512,0.0037655240833883
33.266302786555585,0.0037314063276172
33.29503016374605,0.0035217215196915
33.32375754093651,0.003314452700877
33.352484918126976,0.0033501910315196
33.38121229531743,0.0035366069489081
33.409939672507896,0.0036234985427326
33.43866704969836,0.0036470134805615
33.46739442688882,0.0036142445242314
33.49612180407929,0.0036313817277474
33.52484918126975,0.0036973270742565
33.55357655846021,0.0037229172935327
33.58230393565067,0.0035832888384962
33.611031312841135,0.0034286850645395
33.6397586900316,0.0034560443947399
33.66848606722206,0.0035585327946074
33.697213444412526,0.0036332084026268
33.72594082160298,0.003650401424554
33.754668198793446,0.0035918054436324
33.78339557598391,0.0036043721959899
33.812122953174374,0.0037676029699346
33.84085033036484,0.0037882017801718
33.8695777075553,0.0036904957835234
33.89830508474576,0.0035632041791786
33.92703246193622,0.0034691424886189
33.955759839126685,0.0034205936593229
33.98448721631715,0.0033645136355342
34.01321459350761,0.0033335930946089
34.041941970698076,0.0034157683084232
34.07066934788853,0.0033911749920659
34.099396725078996,0.0033003494397924
34.12812410226946,0.0035934810481653
34.156851479459924,0.0033623176599214
34.18557885665039,0.0033417144668411
34.21430623384085,0.0034070000577099
34.24303361103131,0.0033521930018721
34.27176098822177,0.0033772484135735
34.300488365412235,0.0034379391228229
34.3292157426027,0.0033743091291607
34.35794311979316,0.0033539214773895
34.386670496983626,0.0033635463617517
34.41539787417408,0.0032737665821469
34.44412525136455,0.0035768601360587
34.47285262855501,0.0033980481502281
34.501580005745474,0.0033204584079612
34.53030738293594,0.0033805278917809
34.5590347601264,0.003461974836399
34.58776213731686,0.0034912718537844
34.61648951450732,0.0034555964977879
34.645216891697785,0.0033530124375486
34.67394426888825,0.0034009469448603
34.70267164607871,0.0035522015447962
34.73139902326918,0.0034367994442668
34.76012640045963,0.0033513214399895
34.7888537776501,0.0033717599401685
34.81758115484056,0.0033924394872795
34.846308532031024,0.0034289272882734
34.87503590922149,0.003519276701107
34.90376328641195,0.0036054374959722
34.93249066360241,0.0035607239771438
34.96121804079287,0.0035249165614353
34.989945417983336,0.0034763737140368
35.0186727951738,0.0035088360306594
35.04740017236426,0.0034905555109198
35.07612754955473,0.0035365923704758
35.10485492674518,0.0035994565880699
35.13358230393565,0.0035129834729306
35.16230968112611,0.0035301827897511
35.191037058316574,0.0035318290650997
35.21976443550704,0.0038487165542642
35.2484918126975,0.0038785168084246
35.27721918988796,0.003745354872373
35.30594656707842,0.0036728275622854
35.334673944268886,0.0036252611462789
35.36340132145935,0.0036290789394911
35.39212869864981,0.0037443102341124
35.42085607584027,0.003867051498147
35.44958345303073,0.0036820906565017
35.4783108302212,0.0036023215429908
35.50703820741166,0.0036924178078215
35.535765584602125,0.0038658866534153
35.56449296179259,0.0041928027442431
35.593220338983045,0.0042100450746236
35.62194771617351,0.004104161303691
35.65067509336397,0.0041002459706614
35.679402470554436,0.0040987521043429
35.7081298477449,0.004278117451773
35.73685722493536,0.0040912270140177
35.76558460212582,0.0040398714128279
35.794311979316284,0.0042078643378345
35.82303935650675,0.0042615158258777
35.85176673369721,0.0041100632173774
35.880494110887675,0.0046108159185909
35.90922148807814,0.0044901283159107
35.937948865268595,0.004369585616751
35.96667624245906,0.0044280518899549
35.99540361964952,0.0042869356965488
36.024130996839986,0.0039040705119479
36.05285837403045,0.0038852938517277
36.08158575122091,0.004183763191013
36.11031312841137,0.0036275200627172
36.139040505601834,0.0037532045670025
36.1677678827923,0.0039031037759064
36.19649525998276,0.0037261387198151
36.225222637173225,0.0038771102383695
36.25395001436369,0.0042128279531941
36.282677391554145,0.0040045105283867
36.31140476874461,0.0040355377597102
36.34013214593507,0.0041934757102644
36.368859523125536,0.0040476141684866
36.397586900316,0.0040322784080633
36.426314277506464,0.0040633268604977
36.45504165469692,0.0038853910916324
36.483769031887384,0.0040631372279411
36.51249640907785,0.0040466442374602
36.54122378626831,0.0041864489870358
36.569951163458775,0.0040325487989011
36.59867854064924,0.0039636428378682
36.627405917839695,0.0039813636327578
36.65613329503016,0.0040299561051124
36.68486067222062,0.0041468889163103
36.713588049411086,0.0041071240183097
36.74231542660155,0.0042736453883612
36.771042803792014,0.0042921174270417
36.79977018098247,0.0040593004507437
36.828497558172934,0.0040219202511514
36.8572249353634,0.003949238951736
36.88595231255386,0.0042202285809357
36.914679689744325,0.0044550233367241
36.94340706693479,0.0042634377586978
36.972134444125246,0.0041208764820806
37.00086182131571,0.0043218678742698
37.02958919850617,0.0043365180088266
37.05831657569664,0.004499939982657
37.0870439528871,0.0062142767387662
37.11577133007757,0.0084789855748909
37.14449870726802,0.0093603249042442
37.17322608445848,0.0093139599771444
37.20195346164895,0.0093109200531529
37.23068083883941,0.0094324908403371
37.259408216029875,0.009214925026596
37.28813559322034,0.0089642210676123
37.3168629704108,0.0075166261572805
37.34559034760126,0.0055880977810895
37.37431772479172,0.0045700358257564
37.40304510198219,0.0043501788383936
37.43177247917265,0.0043128025121967
37.460499856363114,0.004477770383147
37.48922723355357,0.0047352275327822
37.517954610744034,0.0045150526146242
37.5466819879345,0.0043799233343162
37.57540936512496,0.0043528743003216
37.604136742315426,0.0041346364001658
37.63286411950589,0.0042385061196405
37.661591496696346,0.0042715505857855
37.69031887388681,0.0040217887738024
37.71904625107727,0.0042436495359413
37.74777362826774,0.0042481167915098
37.7765010054582,0.0042720595864065
37.805228382648664,0.0042256995037853
37.83395575983912,0.004155232250668
37.862683137029585,0.0041784029561771
37.89141051422005,0.004068233939345
37.92013789141051,0.0039631144460489
37.948865268600976,0.0041084731763521
37.97759264579144,0.0036728421453768
38.006320022981896,0.0038130440784653
38.03504740017236,0.0038184033822076
38.06377477736282,0.0038986128092051
38.09250215455329,0.0040179645035254
38.12122953174375,0.0035864573216492
38.149956908934215,0.0039441991593549
38.17868428612467,0.0040674103751086
38.207411663315135,0.0038803385116606
38.2361390405056,0.0039402108178763
38.26486641769606,0.0042272216844134
38.293593794886526,0.0040610928171707
38.32232117207699,0.0041262565367538
38.351048549267446,0.003999739006653
38.37977592645791,0.0039494956730107
38.408503303648374,0.0040640448648898
38.43723068083884,0.0040516754244272
38.4659580580293,0.0041220220090936
38.494685435219765,0.0040610111508546
38.52341281241022,0.0037802565702846
38.552140189600685,0.003334403706078
38.58086756679115,0.0045357742520124
38.60959494398161,0.0036853676734454
38.63832232117208,0.0036494398103555
38.66704969836254,0.0040056949444544
38.69577707555299,0.004069532126915
38.72450445274346,0.0040609995488154
38.75323182993392,0.0040121903245994
38.78195920712439,0.00399743608656
38.81068658431485,0.004166477533277
38.839413961505315,0.0038787040549397
38.86814133869577,0.0041747898195499
38.896868715886235,0.0044894499222995
38.9255960930767,0.0042694164606384
38.95432347026716,0.0040257408474587
38.983050847457626,0.0043175518378451
39.01177822464809,0.004249030043104
39.04050560183855,0.0040597791723145
39.06923297902901,0.0042201348355622
39.097960356219474,0.0039743300455446
39.12668773340994,0.0037395149882716
39.1554151106004,0.0037575916656836
39.184142487790865,0.0038950177415145
39.21286986498132,0.003992312349784
39.241597242171785,0.0039438901291982
39.27032461936225,0.0038979552307581
39.29905199655271,0.0039188071156676
39.32777937374318,0.0038599833499883
39.35650675093364,0.0038812997397661
39.3852341281241,0.0039116931516913
39.41396150531456,0.0038826089360881
39.442688882505024,0.004076359167382
39.47141625969549,0.0040082838859153
39.50014363688595,0.0039654047132423
39.528871014076415,0.0040197513878832
39.55759839126687,0.0041801275195521
39.586325768457336,0.0042275345824821
39.6150531456478,0.0039354289348858
39.64378052283826,0.0039443574713642
39.67250790002873,0.0040815227310368
39.70123527721919,0.0041063556848169
39.72996265440965,0.0039329412101214
39.75869003160011,0.0037448360806619
39.787417408790574,0.0037274441117757
39.81614478598104,0.0039354164330114
39.8448721631715,0.0040016665693944
39.873599540361965,0.0039466792597647
39.90232691755242,0.004009232344927
39.931054294742886,0.0037242447191765
39.95978167193335,0.0040955365595229
39.98850904912381,0.0041706971324021
40.01723642631428,0.0042962412969995
40.04596380350474,0.0043642873426608
40.0746911806952,0.0044084302449802
40.10341855788566,0.0044118676326299
40.132145935076124,0.004476275981603
40.16087331226659,0.0045198397310534
40.18960068945705,0.0043277586002281
40.21832806664752,0.0043494220841979
40.24705544383797,0.0040817360973342
40.27578282102843,0.0041447882864681
40.3045101982189,0.0041541434396777
40.33323757540936,0.0040200700867683
40.36196495259983,0.0039081862728106
40.39069232979029,0.0039939060675619
40.41941970698075,0.003969323252233
40.44814708417121,0.0040111786597563
40.476874461361675,0.0038913322432983
40.50560183855214,0.003790004283485
40.5343292157426,0.0040215218581952
40.563056592933066,0.0035664008351121
40.59178397012352,0.0034305609098408
40.620511347313986,0.0039321319864728
40.64923872450445,0.004092355858458
40.67796610169491,0.0040690052939105
40.70669347888538,0.0039287826063624
40.73542085607584,0.0038108381983783
40.7641482332663,0.0041531999166668
40.79287561045676,0.0041314233369502
40.821602987647225,0.004176824037583
40.85033036483769,0.0041481214893906
40.87905774202815,0.0046752416365761
40.907785119218616,0.006351519840559
40.93651249640907,0.0094102736373673
40.965239873599536,0.00799924063811845
40.99396725079,0.0081100153288323
41.022694627980464,0.0087183947878925
41.05142200517093,0.0107299985974835
41.08014938236139,0.0081261412412456
41.10887675955185,0.0082790152786182
41.13760413674231,0.0069493949225145
41.166331513932775,0.0043791938762382
41.19505889112324,0.0037950845340937
41.2237862683137,0.0038070974265393
41.25251364550416,0.0040780916691355
41.28124102269462,0.0042229696801968
41.309968399885086,0.0041734008342913
41.33869577707555,0.0041644712030066
41.367423154266014,0.0043510351286122
41.39615053145648,0.0043245581971113
41.424877908646934,0.0040743259020459
41.4536052858374,0.0041632645498938
41.48233266302786,0.0039280551795791
41.511060040218325,0.003867080351112
41.53978741740879,0.0039863922656848
41.56851479459925,0.0038598207080833
41.59724217178971,0.0039206193401902
41.62596954898017,0.0039079483348693
41.65469692617064,0.0041543651999184
41.6834243033611,0.004137099978491
41.71215168055157,0.0040043994409324
41.74087905774203,0.0040837753885511
41.76960643493248,0.004126662975716
41.79833381212295,0.0040753410684638
41.82706118931341,0.0040822290796708
41.855788566503875,0.0040726038286525
41.88451594369434,0.0040975898397308
41.9132433208848,0.0044970995428627
41.94197069807526,0.0043017442872065
41.97069807526572,0.0042516353829112
41.99942545245619,0.0039207881717706
42.02815282964665,0.004293428368375
42.056880206837114,0.0064714344911639
42.08560758402758,0.0025458251148965
42.114334961218034,0.0026034265206748
42.1430623384085,0.0043168659441425
42.17178971559896,0.003900961060778
42.200517092789426,0.0040182532353177
42.22924446997989,0.0041054342539757
42.25797184717035,0.0041283505500492
42.28669922436081,0.0041255756503602
42.31542660155127,0.004241755795372
42.34415397874174,0.0044605602369944
42.3728813559322,0.0043994886196528
42.401608733122664,0.0041673744478897
42.43033611031313,0.0040528368794124
42.459063487503585,0.0040727882175896
42.48779086469405,0.0039600801191933
42.51651824188451,0.0037984516249688
42.545245619074976,0.0040414485247412
42.57397299626544,0.0039187784519266
42.6027003734559,0.0038650965382422
42.63142775064636,0.0039791671724637
42.66015512783682,0.0038688402284794
42.68888250502729,0.0038414665967269
42.71760988221775,0.00404204372491
42.746337259408214,0.0039432492950591
42.77506463659868,0.003785585649594
42.803792013789135,0.0038580071871175
42.8325193909796,0.0039945486289984
42.86124676817006,0.0035914488486479
42.889974145360526,0.0041121704253857
42.91870152255099,0.0038037528688539
42.94742889974145,0.003664628695197
42.97615627693191,0.0036478334146752
43.004883654122374,0.0034292808478139
43.03361103131284,0.0037972808778237
43.0623384085033,0.0036517703390264
43.091065785693765,0.0036234369265333
43.11979316288423,0.0037979016768103
43.148520540074685,0.0039133401342198
43.17724791726515,0.0039783551121787
43.20597529445561,0.0040575002958618
43.23470267164608,0.0042096466803232
43.26343004883654,0.0043343683840624
43.292157426027,0.0042421790070981
43.32088480321746,0.0038445956779414
43.34961218040792,0.0040126334745824
43.37833955759839,0.004143856132429
43.40706693478885,0.003891221448484
43.435794311979315,0.0038701709212684
43.46452168916978,0.0036601965159176
43.493249066360235,0.0039333558114423
43.5219764435507,0.0038055190954396
43.55070382074116,0.0039267040496551
43.579431197931626,0.0038613694285081
43.60815857512209,0.003592594519665
43.636885952312554,0.0041876937608694
43.66561332950301,0.0039920444598718
43.694340706693474,0.0039889213031599
43.72306808388394,0.0038785287200022
43.7517954610744,0.00412130501006
43.780522838264865,0.003935598550418
43.80925021545533,0.0039730319660366
43.837977592645785,0.0039226367339351
43.86670496983625,0.0039214457709047
43.89543234702671,0.0044296192348928
43.924159724217176,0.0039794954163171
43.95288710140764,0.0042089996849087
43.981614478598104,0.0043069790983901
44.01034185578856,0.0041009587000543
44.039069232979024,0.0039707574667473
44.06779661016949,0.00431429469846
44.09652398735995,0.0043880345020501
44.125251364550415,0.0041717057994322
44.15397874174088,0.0042814122131806
44.182706118931335,0.0044267121179501
44.2114334961218,0.0042986758535001
44.24016087331226,0.0044893861108742
44.26888825050273,0.0045110399541026
44.29761562769319,0.004421786078586
44.326343004883654,0.0042824553530363
44.35507038207411,0.0041130162927451
44.383797759264574,0.0041166642598193
44.41252513645504,0.0041569140963234
44.4412525136455,0.0037265453727209
44.469979890835965,0.0037745509262726
44.49870726802643,0.0039067874704091
44.527434645216886,0.0039386779575566
44.55616202240735,0.0038868047700061
44.58488939959781,0.0037980818194217
44.61361677678828,0.0038015369324762
44.64234415397874,0.0040698821806122
44.6710715311692,0.0041906263483516
44.69979890835966,0.0040023521468141
44.72852628555013,0.0040971723200346
44.75725366274059,0.0040245512296113
44.78598103993105,0.0041072032733993
44.81470841712152,0.00408627584296
44.84343579431198,0.0040834181629249
44.87216317150243,0.0042778007104661
44.9008905486929,0.0042653713690415
44.92961792588336,0.0046723073204708
44.95834530307383,0.0060067366033787
44.98707268026429,0.0065382220164326
45.015800057454754,0.00749783047294
45.04452743464521,0.0091892214804285
45.073254811835675,0.0087071983054591
45.10198218902614,0.0086419518403506
45.1307095662166,0.0085467486677556
45.159436943407066,0.0082295226611786
45.18816432059753,0.0076587449800428
45.216891697787986,0.0066788597604582
45.24561907497845,0.0052953461295954
45.27434645216891,0.0039693406675397
45.30307382935938,0.0038725191887499
45.33180120654984,0.0039794566168919
45.360528583740304,0.0039809533896376
45.38925596093076,0.0039170895299212
45.417983338121225,0.0039016800167529
45.44671071531169,0.004059013761993
45.47543809250215,0.0042182199704001
45.504165469692616,0.0041516916908395
45.53289284688308,0.0040403730354663
45.561620224073536,0.004158564882887
45.590347601264,0.0042486768282291
45.619074978454464,0.0038564147826433
45.64780235564493,0.0042367946459729
45.67652973283539,0.0040913285351562
45.705257110025855,0.0040311025825443
45.73398448721631,0.0041165203208482
45.762711864406775,0.0037675179678911
45.79143924159724,0.0042454835580247
45.8201666187877,0.0041881624774439
45.848893995978166,0.0043329470502835
45.87762137316863,0.0041112971254707
45.906348750359086,0.0041534276365343
45.93507612754955,0.0043452947071287
45.963803504740014,0.0044254711072875
45.99253088193048,0.0041756169741231
46.02125825912094,0.0040399946469691
46.049985636311405,0.0044317517611073
46.07871301350186,0.0041121624318922
46.107440390692325,0.0040722893617762
46.13616776788279,0.0042944812592646
46.16489514507325,0.0043307898379379
46.19362252226371,0.0042531598162995
46.22234989945418,0.0041299771879916
46.25107727664464,0.0041800509269174
46.2798046538351,0.004401562769913
46.30853203102557,0.0041665126036697
46.33725940821603,0.0040625536136912
46.36598678540649,0.0040687527588208
46.394714162596955,0.0041554225671385
46.42344153978741,0.0040439615245625
46.452168916977875,0.003894572440098
46.48089629416834,0.0038677847630646
46.5096236713588,0.0039524061283612
46.538351048549266,0.0038407097652208
46.56707842573973,0.0037845089908185
46.59580580293019,0.0036928072125158
46.62453318012065,0.0035982516111789
46.653260557311114,0.0037479632878261
46.68198793450158,0.0038790370717881
46.71071531169204,0.0037962027692363
46.739442688882505,0.0037339741051362
46.76817006607296,0.0037371392144947
46.796897443263425,0.0038659629116786
46.82562482045389,0.0039210533273588
46.85435219764435,0.0038140898047411
46.88307957483482,0.0037775956270801
46.91180695202528,0.0038221564184812
46.94053432921574,0.0038897937124737
46.9692617064062,0.003911374565301
46.997989083596664,0.0038579546253529
47.02671646078713,0.0038867074497703
47.05544383797759,0.0042477929761849
47.08417121516805,0.0038526212951909
47.11289859235851,0.0042380388038007
47.141625969548976,0.0036232538309925
47.17035334673944,0.0038084053862764
47.1990807239299,0.0038563776179576
47.22780810112037,0.0037748113882727
47.25653547831082,0.0038375062866588
47.28526285550129,0.0036805698722005
47.31399023269175,0.0038599929748986
47.342717609882214,0.0038539110077042
47.37144498707268,0.0040134462061844
47.40017236426314,0.0042092197715275
47.4288997414536,0.0038677974557768
47.45762711864406,0.0042907197705915
47.486354495834526,0.0040229855751177
47.51508187302499,0.0038602086978451
47.54380925021545,0.0040630822542568
47.57253662740592,0.0043167336409068
47.60126400459637,0.004333433648419
47.62999138178684,0.0041992630417881
47.6587187589773,0.0042573485301009
47.687446136167765,0.0044014962230947
47.71617351335823,0.0044781887136187
47.74490089054869,0.0044275141965435
47.77362826773915,0.0042895509516349
47.80235564492961,0.0041445760889346
47.83108302212008,0.0041037077107141
47.85981039931054,0.0041545186724456
47.888537776501,0.0041837511806449
47.91726515369147,0.0041137263135133
47.94599253088192,0.0040098734749951
47.97471990807239,0.0040251464529969
48.00344728526285,0.0040913921065962
48.032174662453315,0.0041102033601239
48.06090203964378,0.0040330087849741
48.08962941683424,0.0039276799765613
48.1183567940247,0.0038958981143214
48.14708417121516,0.0039224196478285
48.175811548405626,0.0038780347199401
48.20453892559609,0.0035590060189636
48.233266302786554,0.0039660927829261
48.26199367997702,0.0039054958590453
48.290721057167474,0.0038201621548869
48.31944843435794,0.0040458963523193
48.3481758115484,0.0040733672447643
48.376903188738865,0.0039906482401312
48.40563056592933,0.0040464965350751
48.43435794311979,0.0042615536484843
48.46308532031025,0.0043663621887819
48.49181269750071,0.0043982253111407
48.520540074691176,0.0044752612020377
48.54926745188164,0.0041078080494019
48.577994829072104,0.0039966397479642
48.60672220626257,0.0044390947384966
48.635449583453024,0.0040698140590565
48.66417696064349,0.0039438726962747
48.69290433783395,0.0041334585080582
48.721631715024415,0.0040260788184405
48.75035909221488,0.0038892492396172
48.77908646940534,0.003943023966547
48.8078138465958,0.0040098593050971
48.83654122378626,0.0039982554404843
48.86526860097673,0.003907705846981
48.89399597816719,0.0038484859191717
48.922723355357654,0.0039049453309996
48.95145073254812,0.0048636850566364
48.980178109738574,0.0030126336398025
49.00890548692904,0.0033589404455982
49.0376328641195,0.0119608523816146
49.066360241309965,0.0084447832732186
49.09508761850043,0.008322764900875
49.12381499569089,0.0095301847685265
49.15254237288135,0.0094171591992499
49.18126975007181,0.0097762312639729
49.20999712726228,0.0087704399595555
49.23872450445274,0.0081346849698472
49.2674518816432,0.0071768672811051
49.29617925883367,0.0044765058609656
49.32490663602413,0.0039072400583506
49.35363401321459,0.0043853622253017
49.38236139040505,0.0042876609736363
49.411088767595515,0.0042475245800408
49.43981614478598,0.0042183089925397
49.46854352197644,0.0039811125654947
49.4972708991669,0.004024872580705
49.52599827635736,0.0042652452503664
49.55472565354783,0.0043314771708189
49.58345303073829,0.0044937665241878
49.612180407928754,0.0047786260974937
49.64090778511922,0.0048007861306078
49.669635162309675,0.0046533183982669
49.69836253950014,0.0045947331802444
49.7270899166906,0.0046082231921708
49.755817293881066,0.0046069389373554
49.78454467107153,0.004492069054328
49.81327204826199,0.0041718912658713
49.84199942545245,0.0037998466791191
49.87072680264291,0.003821160799837
49.89945417983338,0.0039966399729969
49.92818155702384,0.0039557585649041
49.956908934214304,0.0038359412208941
49.98563631140477,0.0036967361282769
50.014363688595225,0.0036393433686573
50.04309106578569,0.0038892190263364
50.07181844297615,0.0038704652672228
50.100545820166616,0.0037463366782222
50.12927319735708,0.0037664602819915
50.15800057454754,0.0039847409205389
50.186727951738,0.0041585881243122
50.21545532892846,0.0041066081722652
50.24418270611893,0.0040994051800937
50.27291008330939,0.0041849534699083
50.301637460499855,0.0043031273967884
50.33036483769032,0.0043107340025565
50.359092214880775,0.0041604181950606
50.38781959207124,0.0040900479986875
50.4165469692617,0.0044074503476262
50.445274346452166,0.0044191241439804
50.47400172364263,0.0044552829357274
50.50272910083309,0.0045223294860542
50.53145647802355,0.0044100254068992
50.560183855214014,0.0043715612767049
50.58891123240448,0.0045204090224443
50.61763860959494,0.0047009045809888
50.646365986785405,0.0045330098944592
50.67509336397587,0.0041946265896082
50.703820741166325,0.0046812485608205
50.73254811835679,0.004392998305456
50.76127549554725,0.003911935887731
50.79000287273771,0.0047710561881307
50.81873024992818,0.0042486354701384
50.84745762711864,0.0042288364373916
50.8761850043091,0.004335130695272
50.90491238149957,0.0043877161964981
50.93363975869003,0.0043272195845992
50.96236713588049,0.0042106112524725
50.991094513070955,0.0041998392154241
51.01982189026142,0.0042858216900455
51.048549267451875,0.0042936616794866
51.07727664464234,0.0041335238566617
51.1060040218328,0.0043794025347811
51.134731399023266,0.0045793764178921
51.16345877621373,0.0034480581974391
51.192186153404194,0.0040217131240833
51.22091353059465,0.0039882704332434
51.249640907785114,0.0036474373408231
51.27836828497558,0.0036324811215779
51.30709566216604,0.0037535656809328
51.335823039356505,0.0037833546532045
51.36455041654697,0.0036812396102898
51.393277793737425,0.0036758250718776
51.42200517092789,0.0038285251010741
51.45073254811835,0.0039565910952308
51.47945992530882,0.0040235283788808
51.50818730249928,0.0041166226304854
51.536914679689744,0.0044409449852766
51.5656420568802,0.0042141412103474
51.594369434070664,0.0042859924546922
51.62309681126113,0.0033576929059201
51.65182418845159,0.0036548731960874
51.680551565642055,0.0040470569300747
51.70927894283252,0.0039852859798075
51.738006320022976,0.0038550940353236
51.76673369721344,0.0039890403955166
51.7954610744039,0.0039856784405297
51.82418845159437,0.0037692195923351
51.85291582878483,0.0039550334083517
51.881643205975294,0.0038915811622579
51.91037058316575,0.0037326482346465
51.939097960356214,0.0036764742348936
51.96782533754668,0.0037681022440982
51.99655271473714,0.0038558131881713
52.025280091927605,0.003820634216994
52.05400746911807,0.0037280483872731
52.082734846308526,0.0037244289483483
52.11146222349899,0.0039252449519033
52.14018960068945,0.004094507165487
52.16891697787992,0.0040614125588187
52.19764435507038,0.003848100964613
52.22637173226085,0.0037982971284856
52.2550991094513,0.0040060417250028
52.283826486641765,0.0040247854531133
52.31255386383223,0.0041150464924
52.34128124102269,0.0040546715588608
52.37000861821315,0.0039055052909089
52.39873599540362,0.004017601052144
52.42746337259408,0.0041162553810372
52.45619074978454,0.0039565267284289
52.484918126975,0.0037116792170891
52.51364550416547,0.0041010088624821
52.54237288135593,0.0037634505596582
52.571100258546394,0.0037604753543632
52.59982763573685,0.0039436264469299
52.628555012927315,0.0038599772551438
52.65728239011778,0.0037375685917359
52.68600976730824,0.0036719943160838
52.714737144498706,0.0036246668132187
52.74346452168917,0.0039431719580608
52.772191898879626,0.0040017122284211
52.80091927607009,0.0033548585819858
52.82964665326055,0.0044279919369459
52.85837403045102,0.0042120982410521
52.88710140764148,0.0038066692895292
52.915828784831945,0.0039957317368975
52.9445561620224,0.004380511936329
52.973283539212865,0.0032005576080592
53.00201091640333,0.0043064903930008
53.03073829359379,0.0080599743504131
53.059465670784256,0.0088430788629711
53.08819304797471,0.0097068626811083
53.116920425165176,0.0102022110607401
53.14564780235564,0.0103072116891753
53.174375179546104,0.0104341055495764
53.20310255673657,0.0103116813561607
53.23182993392703,0.009774371334743
53.26055731111749,0.0087663691413062
53.28928468830795,0.0058556731052554
53.318012065498415,0.0054347766428517
53.34673944268888,0.0051757036319176
53.37546681987934,0.0043540268067304
53.404194197069806,0.0041373087272001
53.43292157426026,0.0041412139137938
53.46164895145073,0.0039736917588671
53.49037632864119,0.0039903995840009
53.519103705831654,0.0039750561410351
53.54783108302212,0.003838029375872
53.57655846021258,0.0037837549608732
53.60528583740304,0.0037936123274236
53.6340132145935,0.0038041825727691
53.662740591783965,0.0038741255116962
53.69146796897443,0.003994928174921
53.72019534616489,0.0039491767799753
53.74892272335536,0.00415812661289
53.77765010054581,0.0039819832921309
53.80637747773628,0.0038990076460897
53.83510485492674,0.004060917199931
53.8638322321172,0.0041281440782738
53.89255960930767,0.0039835559131299
53.92128698649813,0.0041571013723802
53.95001436368859,0.0042870158016604
53.97874174087905,0.0041531239945996
54.007469118069515,0.003879749141891
54.03619649525998,0.0039492597649757
54.06492387245044,0.0041554227641811
54.09365124964091,0.004228394360553
54.12237862683136,0.0041577367336653
54.15110600402183,0.0039475534102101
54.17983338121229,0.0037263690695961
54.208560758402754,0.0039444701723323
54.23728813559322,0.0040690602062435
54.26601551278368,0.0038679317398274
54.29474288997414,0.003619422749303
54.3234702671646,0.0036214472305038
54.352197644355066,0.0037341249694725
54.38092502154553,0.0039336155804738
54.40965239873599,0.0040495855700645
54.43837977592646,0.003959256999749
54.46710715311691,0.0038510655366532
54.49583453030738,0.0041715385155803
54.52456190749784,0.0037932077683922
54.553289284688304,0.0038984409006897
54.58201666187877,0.0040440841896047
54.61074403906923,0.0038349532500303
54.63947141625969,0.0038162347037609
54.66819879345015,0.0037077760817575
54.696926170640616,0.0038548172923713
54.72565354783108,0.0039128584346774
54.75438092502154,0.0037043333649038
54.78310830221201,0.0034242349593853
54.81183567940246,0.0036934148261459
54.84056305659293,0.0040611676890582
54.86929043378339,0.00375034613455
54.898017810973855,0.003920557364964
54.92674518816432,0.003939202847519
54.95547256535478,0.0039477546478503
54.98419994254524,0.0039873576871602
55.0129273197357,0.003966549672973
55.041654696926166,0.0038630793364986
55.07038207411663,0.0036947307403609
55.09910945130709,0.0038666745987224
55.12783682849756,0.0038275385477052
55.156564205688014,0.0036349353471569
55.18529158287848,0.0041676251108739
55.21401896006894,0.0038379897712232
55.242746337259405,0.0041659156666116
55.27147371444987,0.0039220317341829
55.30020109164033,0.004260512182322
55.32892846883079,0.0042694873794996
55.35765584602125,0.0040505302227535
55.38638322321171,0.004078185078029
55.41511060040218,0.0043384794515935
55.44383797759264,0.0045831184923626
55.47256535478311,0.0045390396361765
55.50129273197357,0.0046095775014499
55.53002010916403,0.0043451810725375
55.55874748635449,0.0042563453985152
55.587474863544955,0.0043933530381973
55.61620224073542,0.0042764004541636
55.64492961792588,0.0043897554893306
55.67365699511634,0.0040455649812885
55.7023843723068,0.0038128200456774
55.731111749497266,0.0038934058994332
55.75983912668773,0.0040954355900732
55.788566503878194,0.0037437553166373
55.81729388106866,0.0038743221127273
55.846021258259114,0.0038161069482752
55.87474863544958,0.0036663712832492
55.90347601264004,0.0037579749868125
55.932203389830505,0.0036496043175992
55.96093076702097,0.0039843707382173
55.98965814421143,0.0037451676271886
56.01838552140189,0.0044362286129874
56.04711289859235,0.0041944045499881
56.07584027578282,0.0041911125146589
56.10456765297328,0.0044495024800483
56.133295030163744,0.0046331715275989
56.16202240735421,0.0045703766496277
56.190749784544664,0.0043788718904637
56.21947716173513,0.0043037647910093
56.24820453892559,0.0043771244110961
56.276931916116055,0.0044685141124741
56.30565929330652,0.0042315465040243
56.33438667049698,0.0042108089606829
56.36311404768744,0.0043456691052514
56.3918414248779,0.0038031753516
56.42056880206837,0.0045227768338112
56.44929617925883,0.0043927305365123
56.478023556449294,0.0041830188950061
56.50675093363976,0.0044557774929121
56.535478310830214,0.0044268654064585
56.56420568802068,0.004318600897515
56.59293306521114,0.0043356143466155
56.621660442401605,0.0043282831539807
56.65038781959207,0.0042124360586154
56.67911519678253,0.0042583258258519
56.70784257397299,0.0043602080653344
56.73656995116345,0.0042314176047807
56.76529732835392,0.004359944944118
56.79402470554438,0.0042336337433125
56.82275208273485,0.0044373066061964
56.85147945992531,0.0052329554522901
56.880206837115765,0.0036041174135359
56.90893421430623,0.0041734094999487
56.93766159149669,0.0042313044968137
56.96638896868715,0.0040712305015554
56.99511634587762,0.0042993614671501
57.02384372306808,0.0038448842679198
57.05257110025854,0.0049763188821212
57.081298477449,0.008650100684023667
57.11002585463947,0.0128592552006158
57.13875323182993,0.0131191825288851
57.167480609020394,0.01280160175745
57.19620798621086,0.0129702794802455
57.224935363401315,0.012930595391733
57.25366274059178,0.0127852838797007
57.28239011778224,0.0124819433561412
57.311117494972706,0.0092758341022859
57.33984487216317,0.0040701311143658
57.36857224935363,0.0040222606331376
57.39729962654409,0.0046192319733672
57.42602700373455,0.0044134670000569
57.45475438092502,0.004574731389364
57.48348175811548,0.0044521176264262
57.512209135305945,0.004488225323471
57.54093651249641,0.0039999217098144
57.569663889686865,0.0040652134715118
57.59839126687733,0.0043149292156238
57.62711864406779,0.0040714964438238
57.655846021258256,0.0041915064648797
57.68457339844872,0.004223175392858
57.71330077563918,0.0043384256456382
57.74202815282964,0.0042951011404867
57.770755530020104,0.0041687505312499
57.79948290721057,0.0041017827375789
57.82821028440103,0.0038786650858421
57.856937661591495,0.0042583591220995
57.88566503878196,0.0040018083277331
57.914392415972415,0.0041782148806779
57.94311979316288,0.00399373788569
57.97184717035334,0.0041544706335677
58.000574547543806,0.0043263491605339
58.02930192473427,0.0042095238191839
58.05802930192473,0.0041314763221048
58.08675667911519,0.0045040600640714
58.115484056305654,0.0044716693535237
58.14421143349612,0.0037954683104418
58.17293881068658,0.0047633414231633
58.201666187877045,0.0055317712963354
58.23039356506751,0.0025806625087617
58.259120942257965,0.0043206778696936
58.28784831944843,0.0041958249304484
58.31657569663889,0.0040830675515561
58.34530307382936,0.0039494426084249
58.37403045101982,0.0039027634797417
58.40275782821029,0.0040479385404198
58.43148520540074,0.003929095885432
58.4602125825912,0.0039849074878791
58.48893995978167,0.0038996264053461
58.51766733697213,0.0040659326149356
58.546394714162595,0.0041169679553727
58.57512209135306,0.0040570938688014
58.603849468543515,0.0041807619677672
58.63257684573398,0.0044619365940289
58.66130422292444,0.0046717065284252
58.69003160011491,0.0045989988666456
58.71875897730537,0.0044276761499418
58.747486354495834,0.0044689630880599
58.77621373168629,0.0045181456148288
58.804941108876754,0.0044145038184354
58.83366848606722,0.0042112754016015
58.86239586325768,0.0042792329817361
58.891123240448145,0.0040916894070803
58.9198506176386,0.0037678684230188
58.948577994829066,0.0039215680255039
58.97730537201953,0.0036034228665264
59.00603274920999,0.0033827679746105
59.03476012640046,0.0034322471749151
59.06348750359092,0.0039004913553648
59.09221488078138,0.0041770639723491
59.12094225797184,0.0041445678150103
59.149669635162304,0.0041496097060776
59.17839701235277,0.0042507452987325
59.20712438954323,0.0043722351942035
59.235851766733695,0.0044098265621818
59.26457914392415,0.0042682774720189
59.293306521114616,0.0039573959222303
59.32203389830508,0.0037705567671809
59.35076127549554,0.0037705317846809
59.37948865268601,0.0038344380476169
59.40821602987647,0.0040483031355081
59.43694340706693,0.0040324670615514
59.46567078425739,0.0040819387307293
59.494398161447855,0.0041722847446872
59.52312553863832,0.0039283813136214
59.55185291582878,0.0043341054948743
59.580580293019246,0.0038705605881264
59.6093076702097,0.0041828878759583
59.638035047400166,0.0043646767376177
59.66676242459063,0.0041484543280441
59.69548980178109,0.0040156688749004
59.72421717897156,0.0045552208008012
59.75294455616202,0.0039273038348626
59.78167193335248,0.0036575732642917
59.81039931054294,0.004083089166095
59.839126687733405,0.0039990912663924
59.86785406492387,0.0038724911893138
59.89658144211433,0.0039070322198254
59.9253088193048,0.0039638961239266
59.95403619649525,0.003957864347613
59.98276357368571,0.003927853761892
60.01149095087618,0.0039486316609761
60.04021832806664,0.0039892895814553
60.06894570525711,0.003991840146585
60.09767308244757,0.0039219170607541
60.12640045963803,0.0038746688181769
60.15512783682849,0.0039292396483458
60.183855214018955,0.0039212878182538
60.21258259120942,0.0038677754511337
60.24130996839988,0.003883876140588
60.270037345590346,0.0038298424818147
60.2987647227808,0.0038679442643422
60.327492099971266,0.0038175138815482
60.35621947716173,0.0036946664849024
60.384946854352194,0.0037223439139819
60.41367423154266,0.0037797702122682
60.44240160873312,0.0038145497734681
60.47112898592358,0.0038193278183799
60.49985636311404,0.0038290373867303
60.528583740304505,0.003845954382237
60.55731111749497,0.0039827413702017
60.58603849468543,0.0041060584506713
60.614765871875896,0.0040724720368088
60.64349324906635,0.0041346930518344
60.672220626256816,0.0040907910014355
60.70094800344728,0.0040255590115731
60.729675380637744,0.0042582515384273
60.75840275782821,0.0041120429372673
60.78713013501867,0.0039597274826824
60.81585751220913,0.0040700543529954
60.84458488939959,0.004337751021911
60.873312266590055,0.0044445588850394
60.90203964378052,0.0043228903244878
60.93076702097098,0.0043730746346725
60.959494398161446,0.0038645788365165
60.9882217753519,0.0042673954509247
61.01694915254237,0.0068152387533881
61.04567652973283,0.008235322033857
61.074403906923294,0.0084249019803541
61.10313128411376,0.0103015662980593
61.13185866130422,0.0119269677363458
61.16058603849468,0.0118873660958316
61.18931341568514,0.0117706021494787
61.218040792875605,0.0118415714090345
61.24676817006607,0.0116000966046139
61.27549554725653,0.0106035041911675
61.304222924447,0.0090284759151231
61.33295030163745,0.0071326574412602
61.36167767882792,0.0030821172556232
61.39040505601838,0.0036371258096226
61.41913243320885,0.0046193759748298
61.44785981039931,0.0042780422590742
61.47658718758977,0.0042081315826464
61.50531456478023,0.0040326082071006
61.53404194197069,0.0041641388082948
61.56276931916115,0.0042166541113282
61.59149669635162,0.0040247855856239
61.62022407354208,0.0038756749142069
61.64895145073255,0.0042562551208774
61.677678827923,0.0037948013813964
61.70640620511347,0.0036231712931557
61.73513358230393,0.0040640379204679
61.763860959494394,0.0040716336162439
61.79258833668486,0.00380363586709
61.82131571387532,0.0037014723818295
61.85004309106578,0.0038102021120151
61.87877046825624,0.0035872663778355
61.907497845446706,0.0039547886526281
61.93622522263717,0.004121370263907
61.96495259982763,0.0040740224068936
61.9936799770181,0.0040847110543758
62.02240735420855,0.004079616836541
62.05113473139902,0.0042973595864228
62.07986210858948,0.0045986837935819
62.108589485779945,0.0041360061443613
62.13731686297041,0.004232956322119
62.16604424016087,0.0042223135970458
62.19477161735133,0.0041771469579578
62.22349899454179,0.0041111059545494
62.252226371732256,0.0037302441970979
62.28095374892272,0.0044768837604263
62.30968112611318,0.0038878463697518
62.33840850330365,0.0036927615237092
62.367135880494104,0.0038115459717904
62.39586325768457,0.0038482975725828
62.42459063487503,0.0037952481629704
62.453318012065495,0.0037429256765827
62.48204538925596,0.0041318846091067
62.51077276644642,0.0043151814577865
62.53950014363688,0.0042617629336781
62.56822752082734,0.0041725744297984
62.596954898017806,0.0041895005843486
62.62568227520827,0.0043416637999886
62.65440965239873,0.0044742253219164
62.6831370295892,0.0044634504133201
62.711864406779654,0.00429969127366
62.74059178397012,0.0041174968677629
62.76931916116058,0.0040645551798632
62.798046538351045,0.0040471414408847
62.82677391554151,0.0039341449363135
62.85550129273197,0.003704951798739
62.88422866992243,0.0036170984682726
62.91295604711289,0.0035184861856056
62.94168342430336,0.003362400307009
62.97041080149382,0.0034359824746508
62.99913817868429,0.0037620349701108
63.02786555587475,0.0036903258742162
63.0565929330652,0.0036233603653023
63.08532031025567,0.0037153824388523
63.11404768744613,0.0038426329183161
63.142775064636595,0.0038135575862942
63.17150244182706,0.0037530328852307
63.20022981901752,0.0037397577952106
63.22895719620798,0.0037550569465458
63.25768457339844,0.0037925919879628
63.28641195058891,0.0038732700097639
63.31513932777937,0.0040693582939836
63.343866704969834,0.0039228381875364
63.3725940821603,0.0037432998662296
63.401321459350754,0.0042683232123844
63.43004883654122,0.0044361397476861
63.45877621373168,0.0043141954730541
63.487503590922145,0.0042726260969879
63.51623096811261,0.0046328879482822
63.54495834530307,0.0043814140490561
63.57368572249353,0.0043241321508618
63.60241309968399,0.0051538258926222
63.63114047687446,0.0042202605424998
63.65986785406492,0.0044998588634285
63.688595231255384,0.0047291509367458
63.71732260844585,0.0045390491438173
63.746049985636304,0.0042610581657376
63.77477736282677,0.0043151171195064
63.80350474001723,0.0044159740085929
63.832232117207695,0.004326079248087
63.86095949439816,0.0042838508971084
63.88968687158862,0.0042605609338176
63.91841424877908,0.0043026164511628
63.94714162596954,0.0044186180751308
63.97586900316001,0.0043505580182428
64.00459638035046,0.0042484245586187
64.03332375754093,0.0042184819042063
64.06205113473139,0.0042629048337241
64.09077851192185,0.0042306577689528
64.11950588911232,0.0041154650707296
64.14823326630278,0.0040084834970687
64.17696064349325,0.0040708595884752
64.20568802068371,0.0042207972897961
64.23441539787417,0.0041521758665013
64.26314277506464,0.0039494372623028
64.2918701522551,0.0039013840523937
64.32059752944556,0.0042404336186585
64.34932490663601,0.0039455347690844
64.37805228382648,0.0038702466411785
64.40677966101694,0.0039941070861864
64.4355070382074,0.0039915973154955
64.46423441539787,0.0040368829591123
64.49296179258833,0.004087164685872
64.5216891697788,0.0040982415598544
64.55041654696926,0.0040925104117696
64.57914392415972,0.00402891447063
64.60787130135019,0.0039142672627618
64.63659867854065,0.0039284125803543
64.66532605573111,0.0040354843212057
64.69405343292156,0.0040091658602105
64.72278081011203,0.0040127794919676
64.75150818730249,0.004056812675128
64.78023556449295,0.0038618955434804
64.80896294168342,0.0039396653737347
64.83769031887388,0.0040164958325908
64.86641769606435,0.0037870538330201
64.89514507325481,0.0038512579648595
64.92387245044527,0.0040081090616353
64.95259982763574,0.0038815053945387
64.9813272048262,0.0038978690748414
65.01005458201665,0.0039948710972779
65.03878195920711,0.0037907300569253
65.06750933639758,0.0038960735094101
65.09623671358804,0.0041852763243737
65.1249640907785,0.0039269231623327
65.15369146796897,0.0038635092278691
65.18241884515943,0.0041348470953485
65.2111462223499,0.0039916572128639
65.23987359954036,0.0041013235801356
65.26860097673082,0.0043705594473773
65.29732835392129,0.004117784208007
65.32605573111175,0.0038733163109384
65.3547831083022,0.0041890410792065
65.38351048549266,0.0039272351518318
65.41223786268313,0.0030560586925037
65.44096523987359,0.0056734784784878
65.46969261706406,0.0056082967404924
65.49841999425452,0.0083172844457028
65.52714737144498,0.0125159987449434
65.55587474863545,0.0134624607291022
65.58460212582591,0.0128939213205672
65.61332950301637,0.0129554543924612
65.64205688020684,0.0133912841372694
65.6707842573973,0.012304908043695
65.69951163458775,0.0104656356277619
65.72823901177821,0.0121937109116235
65.75696638896868,0.00765557457553995
65.78569376615914,0.0024824858920329
65.8144211433496,0.0040958614918422
65.84314852054007,0.0043908454862842
65.87187589773053,0.0043901574045953
65.900603274921,0.0042149066593968
65.92933065211146,0.004247402814915
65.95805802930192,0.0041936441444518
65.98678540649239,0.0038249439120294
66.01551278368285,0.0040739090026013
66.0442401608733,0.0040343591008238
66.07296753806376,0.0038635621418116
66.10169491525423,0.004021250457153
66.13042229244469,0.0041325987935818
66.15914966963516,0.0041191192008737
66.18787704682562,0.0042351346649024
66.21660442401608,0.0041081562950841
66.24533180120655,0.0040490751175573
66.27405917839701,0.0041666136298631
66.30278655558747,0.0041344232596704
66.33151393277794,0.0039758542304261
66.3602413099684,0.0041674766824904
66.38896868715885,0.0039868282621022
66.41769606434931,0.0040212658737901
66.44642344153978,0.0039664326289721
66.47515081873024,0.0037967364098239
66.5038781959207,0.0037857726000442
66.53260557311117,0.0040052705694076
66.56133295030163,0.0041473111345579
66.5900603274921,0.0041377634018587
66.61878770468256,0.0040715782352445
66.64751508187302,0.0041710392160892
66.67624245906349,0.0044439511023996
66.70496983625395,0.0045448045311116
66.7336972134444,0.0040804560711903
66.76242459063486,0.0041354450159331
66.79115196782533,0.0042284293413689
66.81987934501579,0.0042179419879719
66.84860672220626,0.0042440547846659
66.87733409939672,0.0041871096677041
66.90606147658718,0.0040604087707048
66.93478885377765,0.004329045592321
66.96351623096811,0.0045572488214183
66.99224360815857,0.0044747169758018
67.02097098534904,0.0045722754392557
67.0496983625395,0.004714536889085
67.07842573972995,0.0045781841234682
67.10715311692041,0.0044409016520664
67.13588049411088,0.004628458122775
67.16460787130134,0.0043873072093178
67.1933352484918,0.0044000016267979
67.22206262568227,0.0044535789579347
67.25079000287273,0.0042253156829433
67.2795173800632,0.0039933844472452
67.30824475725366,0.0040067040840474
67.33697213444412,0.0041222642446476
67.36569951163459,0.0040432350774199
67.39442688882505,0.003869563515995
67.4231542660155,0.0039375140733748
67.45188164320597,0.0039930530736409
67.48060902039643,0.0039308185371401
67.50933639758689,0.0039529136594241
67.53806377477736,0.0040424858171921
67.56679115196782,0.0039587449209612
67.59551852915828,0.0040932521093034
67.62424590634875,0.0042021298428767
67.65297328353921,0.0039460381281209
67.68170066072967,0.003800960778533
67.71042803792014,0.004382118132947
67.7391554151106,0.0041245717775096
67.76788279230105,0.003995066191814
67.79661016949152,0.0041775006977656
67.82533754668198,0.0044800533018424
67.85406492387244,0.0046246635351554
67.8827923010629,0.0047662305474906
67.91151967825337,0.0049029252138598
67.94024705544383,0.0048104331879327
67.9689744326343,0.0048042599722562
67.99770180982476,0.0048992698535388
68.02642918701522,0.0045127369665296
68.05515656420569,0.0040932865448997
68.08388394139615,0.0042100835394349
68.1126113185866,0.0041257844547632
68.14133869577707,0.004059172794232
68.17006607296753,0.0040749071127959
68.19879345015799,0.004045573327083
68.22752082734846,0.0040899810313558
68.25624820453892,0.0042513513456487
68.28497558172938,0.0042775901307252
68.31370295891985,0.0039294207896323
68.34243033611031,0.0040092317332418
68.37115771330078,0.0041999973764247
68.39988509049124,0.0038475761058002
68.4286124676817,0.0043842640245966
68.45733984487215,0.0043895327778956
68.48606722206262,0.0040729771122779
68.51479459925308,0.0041233139650288
68.54352197644354,0.0047052810294978
68.572249353634,0.0041341143846809
68.60097673082447,0.0046440231938185
68.62970410801493,0.0044792650594433
68.6584314852054,0.0042768694987886
68.68715886239586,0.004552781985766
68.71588623958633,0.0047326911850289
68.74461361677679,0.0046311255819348
68.77334099396725,0.0044958170722998
68.8020683711577,0.004351974251518
68.83079574834817,0.0042286788540252
68.85952312553863,0.0041764643885714
68.8882505027291,0.0040727495791791
68.91697787991956,0.0039877736421563
68.94570525711002,0.004125711756695
68.97443263430048,0.0040025310398501
69.00316001149095,0.0041981844147612
69.03188738868141,0.0026839947341669
69.06061476587188,0.0030708333054638
69.08934214306234,0.005886691443777083
69.1180695202528,0.007109659121852731
69.14679689744325,0.009986035067863969
69.17552427463372,0.008131124944828996
69.20425165182418,0.0071988094753366
69.23297902901464,0.0081376733990433
69.2617064062051,0.0104678811611003
69.29043378339557,0.0105954715617266
69.31916116058603,0.0106328946973985
69.3478885377765,0.0102610366175214
69.37661591496696,0.008580372947497
69.40534329215743,0.0064444674442745
69.43407066934789,0.0047688432041687
69.46279804653835,0.0039862092390362
69.4915254237288,0.0043495517152638
69.52025280091927,0.0043037643043958
69.54898017810973,0.0042531162976665
69.5777075553002,0.0043553636141378
69.60643493249066,0.00436015232347
69.63516230968112,0.0042219904983048
69.66388968687158,0.0040908720337016
69.69261706406205,0.0042130616821619
69.72134444125251,0.0042794776540987
69.75007181844298,0.0040955939526038
69.77879919563344,0.0041338475551342
69.8075265728239,0.0039928615214942
69.83625395001435,0.0044058500021387
69.86498132720482,0.0042314746488067
69.89370870439528,0.0044581309605064
69.92243608158574,0.0043946516216765
69.95116345877621,0.0041978201827449
69.97989083596667,0.0043920086870858
70.00861821315713,0.0046266607261578
70.0373455903476,0.0046693290544699
70.06607296753806,0.0046098580773542
70.09480034472853,0.0045433403289579
70.12352772191899,0.0045154640774781
70.15225509910945,0.0045758416873337
70.1809824762999,0.0046118976395989
70.20970985349037,0.0044738346249151
70.23843723068083,0.0042748559694063
70.2671646078713,0.0040461019346745
70.29589198506176,0.0044633982691403
70.32461936225222,0.0042175141575395
70.35334673944269,0.004345733407195
70.38207411663315,0.0046370224058896
70.41080149382361,0.0045946282389261
70.43952887101408,0.00456733311679
70.46825624820454,0.0046194319446601
70.496983625395,0.0048438016712425
70.52571100258545,0.0045628567946681
70.55443837977592,0.0045287288271188
70.58316575696638,0.0042016140010597
70.61189313415684,0.0045528002813151
70.64062051134731,0.003927299353633
70.66934788853777,0.0038112881339204
70.69807526572824,0.004095262939405
70.7268026429187,0.0038394913976862
70.75553002010916,0.003950538469529
70.78425739729963,0.0037906868443808
70.81298477449009,0.0037513612055299
70.84171215168054,0.0038211884486249
70.870439528871,0.003850740695957
70.89916690606147,0.0038871071762498
70.92789428325193,0.0038610594192866
70.9566216604424,0.0038241435551843
70.98534903763286,0.0038447196794254
71.01407641482332,0.0038230023110997
71.04280379201379,0.003904127929589
71.07153116920425,0.0039733387882081
71.10025854639471,0.0040652972229048
71.12898592358518,0.0041920266691682
71.15771330077564,0.0040512062468318
71.18644067796609,0.0043148212528718
71.21516805515655,0.0042679211923572
71.24389543234702,0.004227719644666
71.27262280953748,0.00430374945038
71.30135018672794,0.0039802718529875
71.33007756391841,0.0042118908377495
71.35880494110887,0.0038662792576755
71.38753231829934,0.0040254780076269
71.4162596954898,0.0041859114788135
71.44498707268026,0.0040436055942682
71.47371444987073,0.0040067063679434
71.50244182706119,0.0040893313675692
71.53116920425164,0.004187354285508
71.5598965814421,0.0042793318267114
71.58862395863257,0.0042943766128355
71.61735133582303,0.0041724530172723
71.6460787130135,0.0040429475738904
71.67480609020396,0.0043637458607959
71.70353346739442,0.0038975750013532
71.73226084458489,0.0043192273199441
71.76098822177535,0.0040066582428261
71.78971559896581,0.0041686552414276
71.81844297615628,0.0044613926269415
71.84717035334674,0.0042837209707996
71.87589773053719,0.0042972155048047
71.90462510772765,0.0040357373468273
71.93335248491812,0.0043454049811529
71.96207986210858,0.0042298424154486
71.99080723929904,0.0042444077123056
72.01953461648951,0.0043118757850309
72.04826199367997,0.0040264005235186
72.07698937087044,0.0040338414809094
72.1057167480609,0.0041480148027441
72.13444412525136,0.0044812637231821
72.16317150244183,0.0042859933728322
72.19189887963229,0.0042515281458799
72.22062625682274,0.0040051870715987
72.2493536340132,0.0042705759062964
72.27808101120367,0.0043417066372783
72.30680838839413,0.0041350749683606
72.3355357655846,0.0040330725545384
72.36426314277506,0.0044600339700994
72.39299051996552,0.0043165071547354
72.42171789715599,0.0043711539223959
72.45044527434645,0.0044008482115426
72.47917265153691,0.0044321313561012
72.50790002872738,0.004601023977167
72.53662740591784,0.0043787660072401
72.56535478310829,0.0043730723158293
72.59408216029875,0.0042993715770405
72.62280953748922,0.0041623395523995
72.65153691467968,0.0046244519570892
72.68026429187015,0.0039216718304694
72.70899166906061,0.0040795983726339
72.73771904625107,0.0042609163943007
72.76644642344154,0.0040511940290607
72.795173800632,0.0039472113408937
72.82390117782246,0.0039987787077825
72.85262855501293,0.0039802691661207
72.88135593220339,0.0037758217695448
72.91008330939384,0.0038037699290338
72.9388106865843,0.003718379002334
72.96753806377477,0.0032307493705993
72.99626544096523,0.0046938998076789
73.0249928181557,0.0042659588979122
73.05372019534616,0.0039894342225073
73.08244757253662,0.0041957172730458
73.11117494972709,0.0043369421446512
73.13990232691755,0.0044060830281526
73.16862970410801,0.0043559907388001
73.19735708129848,0.0040287205609265
73.22608445848894,0.003939348520025
73.25481183567939,0.0043817362290588
73.28353921286985,0.004789888183261
73.31226659006032,0.0052483200620257
73.34099396725078,0.0064966304443559
73.36972134444125,0.0077158326993043
73.39844872163171,0.0082182549051381
73.42717609882217,0.0082796468352443
73.45590347601264,0.0083568153725814
73.4846308532031,0.0082879562462043
73.51335823039356,0.0072048307861828
73.54208560758403,0.0066505438319973
73.57081298477449,0.0051930738794048
73.59954036196494,0.0039852056499889
73.6282677391554,0.0041396136397784
73.65699511634587,0.0044456750935358
73.68572249353633,0.0043986084152151
73.7144498707268,0.0044985063153537
73.74317724791726,0.0049099948295558
73.77190462510772,0.0049663034688607
73.80063200229819,0.004713253657668
73.82935937948865,0.0048934462877294
73.85808675667911,0.0047710027591802
73.88681413386958,0.0045221527905683
73.91554151106004,0.004452845572911
73.94426888825049,0.004411530201629
73.97299626544095,0.0040161150170749
74.00172364263142,0.0042173809503303
74.03045101982188,0.0045646800141778
74.05917839701235,0.0040245995383353
74.08790577420281,0.0040425518858791
74.11663315139327,0.0041363433789391
74.14536052858374,0.0038863015380873
74.1740879057742,0.0039373165000702
74.20281528296466,0.0038180714692093
74.23154266015513,0.0041437403041901
74.26027003734559,0.0045128765900421
74.28899741453604,0.0041212964881247
74.3177247917265,0.0043639940131747
74.34645216891697,0.0045700101300389
74.37517954610743,0.0045313817700015
74.4039069232979,0.004456463742209
74.43263430048836,0.0044907947830043
74.46136167767882,0.0046092887971751
74.49008905486929,0.0042832212879048
74.51881643205975,0.0044425816912709
74.54754380925021,0.0044566036085514
74.57627118644068,0.0045203484523759
74.60499856363114,0.004538331040984
74.63372594082159,0.0043204634118736
74.66245331801206,0.0043267082219841
74.69118069520252,0.0044839315275821
74.71990807239298,0.0045294315633902
74.74863544958345,0.0043547409912444
74.77736282677391,0.0040465924643749
74.80609020396437,0.0043322540284958
74.83481758115484,0.0040994859358157
74.8635449583453,0.0045230879024628
74.89227233553576,0.0033797212932937
74.92099971272623,0.0041841588535782
74.94972708991669,0.0042321011667645
74.97845446710714,0.0039972707632955
75.0071818442976,0.0044678588288865
75.03590922148807,0.0039782884496936
75.06463659867853,0.0044008584437299
75.093363975869,0.0046278857132429
75.12209135305946,0.0045893532912002
75.15081873024992,0.0045532949228429
75.17954610744039,0.0048269878607458
75.20827348463085,0.0044918832739763
75.23700086182131,0.0045377736049375
75.26572823901178,0.0046245106888571
75.29445561620224,0.0046247783999611
75.32318299339269,0.0050362597771122
75.35191037058316,0.0040126535552519
75.38063774777362,0.0044362698036022
75.40936512496408,0.0044128227340998
75.43809250215455,0.0041530436733963
75.46681987934501,0.0042596889670102
75.49554725653547,0.0044918703360548
75.52427463372594,0.0046210596445792
75.5530020109164,0.0045758932358685
75.58172938810687,0.0044618266566328
75.61045676529733,0.0046438225616222
75.63918414248779,0.0051497651080291
75.66791151967824,0.0044930035099517
75.6966388968687,0.0044212674739986
75.72536627405917,0.0047935753565952
75.75409365124963,0.0046400766933668
75.7828210284401,0.0042663144837285
75.81154840563056,0.0042876061909101
75.84027578282102,0.0044774671830215
75.86900316001149,0.0038642168805081
75.89773053720195,0.0041169482367547
75.92645791439242,0.004368468759183
75.95518529158288,0.00406866977474
75.98391266877334,0.0039594367960054
76.01264004596379,0.0041867160317401
76.04136742315426,0.0043338633299201
76.07009480034472,0.0042233910715726
76.09882217753518,0.0043631564544395
76.12754955472565,0.0042347288802478
76.15627693191611,0.0043157881622842
76.18500430910657,0.004482796516357
76.21373168629704,0.0044023383743664
76.2424590634875,0.004297244473636
76.27118644067797,0.0043410499082989
76.29991381786843,0.004442310024935
76.32864119505889,0.0043453926321918
76.35736857224934,0.0042022832123638
76.3860959494398,0.0046166144915258
76.41482332663027,0.0043669074682335
76.44355070382073,0.0043317746661553
76.4722780810112,0.0044189924239115
76.50100545820166,0.0044007546161422
76.52973283539212,0.0045652166699464
76.55846021258259,0.0045956082210512
76.58718758977305,0.004182825018283
76.61591496696352,0.004907372591359
76.64464234415398,0.0047028242795459
76.67336972134443,0.0045511186017081
76.70209709853489,0.0047110634050622
76.73082447572536,0.0044756226255822
76.75955185291582,0.004670309655507
76.78827923010628,0.0048113393339108
76.81700660729675,0.003659550405563
76.84573398448721,0.0042536238828215
76.87446136167767,0.0043141136859497
76.90318873886814,0.004032837772622
76.9319161160586,0.0041308102451759
76.96064349324907,0.004546716768897
76.98937087043953,0.0041712275050024
77.01809824762998,0.0041116374043512
77.04682562482044,0.0041957885054539
77.0755530020109,0.0041562590936557
77.10428037920137,0.0036712377212376
77.13300775639183,0.0044346998198411
77.1617351335823,0.0046647098154016
77.19046251077276,0.0163280466539136
77.21918988796322,0.0129574670794206
77.24791726515369,0.0124831616091169
77.27664464234415,0.0144015945062199
77.30537201953462,0.0147560915296164
77.33409939672508,0.0147765966399208
77.36282677391553,0.0146687901341637
77.39155415110599,0.0143782666924452
77.42028152829646,0.0126660206100741
77.44900890548692,0.0091092582292756
77.47773628267738,0.0071486798433381
77.50646365986785,0.0056260516014301
77.53519103705831,0.0047793694140277
77.56391841424877,0.0048072388149925
77.59264579143924,0.0046744987354575
77.6213731686297,0.0045238216787889
77.65010054582017,0.0047061256626761
77.67882792301063,0.0048261197706358
77.70755530020108,0.0042570132561243
77.73628267739154,0.0044714522598501
77.765010054582,0.004349576187722
77.79373743177247,0.0041994581717892
77.82246480896293,0.0041947852981531
77.8511921861534,0.0042176365309618
77.87991956334386,0.004464860477874
77.90864694053433,0.0042855418595222
77.93737431772479,0.0038743361253349
77.96610169491525,0.0041932216718557
77.99482907210572,0.0042631760152968
78.02355644929618,0.0041793678129328
78.05228382648663,0.0041337448322067
78.0810112036771,0.0041973965031545
78.10973858086756,0.0043003913679565
78.13846595805802,0.0043944637935248
78.16719333524848,0.0035816085796537
78.19592071243895,0.0058117734267076
78.22464808962941,0.0050600997968147
78.25337546681988,0.0028186264760452
78.28210284401034,0.0040576258685331
78.3108302212008,0.0039519813085335
78.33955759839127,0.0045171037987618
78.36828497558173,0.0043474801701227
78.39701235277218,0.0040148462398072
78.42573972996264,0.0040621836647862
78.4544671071531,0.0040371305592893
78.48319448434357,0.0040447575849685
78.51192186153403,0.004158024265912
78.5406492387245,0.0044453916228817
78.56937661591496,0.0039871608749843
78.59810399310543,0.004279683581044
78.62683137029589,0.0044302653627282
78.65555874748635,0.0043340113485805
78.68428612467682,0.0042943712609807
78.71301350186728,0.0042236360623186
78.74174087905773,0.0041734665419108
78.7704682562482,0.0043076216103314
78.79919563343866,0.004241652068104
78.82792301062912,0.0042061829774636
78.85665038781958,0.0045936063328253
78.88537776501005,0.0039681527682054
78.91410514220051,0.0041152639582109
78.94283251939098,0.0041666087761028
78.97155989658144,0.0041281387221608
79.0002872737719,0.0042023359228262
79.02901465096237,0.0041568558313926
79.05774202815283,0.004214209791057
79.08646940534328,0.0040881306864159
79.11519678253374,0.0040442414769962
79.14392415972421,0.0041867123387163
79.17265153691467,0.0043647401162854
79.20137891410513,0.0044350064942302
79.2301062912956,0.004367620313417
79.25883366848606,0.0042591424190827
79.28756104567653,0.0043243455743029
79.31628842286699,0.0044000707980395
79.34501580005745,0.0043896388339688
79.37374317724792,0.0043092810727353
79.40247055443838,0.0042115340544077
79.43119793162883,0.0042567073161478
79.4599253088193,0.0042975216709216
79.48865268600976,0.0041439685359927
79.51738006320022,0.0043455883404124
79.54610744039068,0.0040180719109274
79.57483481758115,0.0041708113120947
79.60356219477161,0.0042844504626542
79.63228957196208,0.0043170343043558
79.66101694915254,0.004384320497873
79.689744326343,0.0042927101093594
79.71847170353347,0.0042551423540585
79.74719908072393,0.0043761303358207
79.77592645791438,0.0045141554618236
79.80465383510484,0.0039914766481846
79.83338121229531,0.0041764177734537
79.86210858948577,0.0043702058171446
79.89083596667624,0.0043903591890777
79.9195633438667,0.0042900726191467
79.94829072105716,0.0044306150787628
79.97701809824763,0.0044814278322283
80.00574547543809,0.003989565237742
80.03447285262855,0.0042208411692421
80.06320022981902,0.0043599332920743
80.09192760700948,0.004156240016736
80.12065498419993,0.0038768122606586
80.1493823613904,0.0039876603083265
80.17810973858086,0.0043140079007782
80.20683711577132,0.0043545824503683
80.23556449296179,0.0043262621933271
80.26429187015225,0.004318914370023
80.29301924734271,0.0043399131461181
80.32174662453318,0.0044113981935922
80.35047400172364,0.004465448848692
80.3792013789141,0.0043901599149129
80.40792875610457,0.0042256329120941
80.43665613329503,0.0043318364274491
80.46538351048548,0.0046746572003198
80.49411088767594,0.0044569526992609
80.52283826486641,0.0044523019933571
80.55156564205687,0.0043695536023351
80.58029301924734,0.0042526017149069
80.6090203964378,0.0046384772721292
80.63774777362826,0.0038288500167427
80.66647515081873,0.0040654884155907
80.69520252800919,0.0042924583353049
80.72392990519965,0.0040547337331177
80.75265728239012,0.0038350397813285
80.78138465958058,0.0043158253038974
80.81011203677103,0.004267759069471
80.8388394139615,0.0042072639459776
80.86756679115196,0.0041755221333223
80.89629416834242,0.0041760629817568
80.92502154553289,0.0042524843904155
80.95374892272335,0.0041777378438377
80.98247629991381,0.0041848221642624
81.01120367710428,0.0043402858817598
81.03993105429474,0.0041567977322471
81.0686584314852,0.0042033399689568
81.09738580867567,0.0043790222449591
81.12611318586613,0.0044409123164068
81.15484056305658,0.0047254111899647
81.18356794024704,0.0043427706644641
81.21229531743751,0.0038929917175889
81.24102269462797,0.0069444107829528
81.26975007181844,0.0090740720613759
81.2984774490089,0.0088155138086872
81.32720482619936,0.0093573254706685
81.35593220338983,0.0094404016576566
81.38465958058029,0.0093367217045548
81.41338695777075,0.0095286340679267
81.44211433496122,0.0093632505095065
81.47084171215168,0.0076063613466227
81.49956908934213,0.004909264178375
81.5282964665326,0.0044848646070352
81.55702384372306,0.0045842875841327
81.58575122091352,0.0041980964772289
81.61447859810399,0.0041514401495674
81.64320597529445,0.0039996552694346
81.67193335248491,0.0041511780919041
81.70066072967538,0.0040190350712612
81.72938810686584,0.0038780368611811
81.7581154840563,0.0039686748127339
81.78684286124677,0.0041798388446215
81.81557023843723,0.004291381263471
81.84429761562768,0.0040270101422745
81.87302499281815,0.0043733766332913
81.90175237000861,0.0041666971583558
81.93047974719907,0.0041971435150552
81.95920712438954,0.0039361894135909
81.98793450158,0.0040909217581329
82.01666187877046,0.0044007168984802
82.04538925596093,0.0042756775141119
82.07411663315139,0.0040879400614725
82.10284401034185,0.0040885192516581
82.13157138753232,0.0041883088415177
82.16029876472278,0.0040803168270656
82.18902614191323,0.004347211648194
82.2177535191037,0.0042483282341204
82.24648089629416,0.0042376337095726
82.27520827348462,0.0042671700600999
82.30393565067509,0.0041333769732354
82.33266302786555,0.004381705539269
82.36139040505601,0.0044422309675897
82.39011778224648,0.0042137243320998
82.41884515943694,0.0042017436589843
82.4475725366274,0.0044811961609424
82.47629991381787,0.0041806422790738
82.50502729100832,0.0042802982375494
82.53375466819878,0.004419811623053
82.56248204538925,0.0044319021991238
82.59120942257971,0.0043884083247026
82.61993679977017,0.0045499013922841
82.64866417696064,0.0046937883267147
82.6773915541511,0.0044988443164508
82.70611893134156,0.0043188149757018
82.73484630853203,0.0043978539339887
82.76357368572249,0.0046522090759885
82.79230106291295,0.0047212346951233
82.82102844010342,0.0044815832786077
82.84975581729387,0.0042813181738953
82.87848319448433,0.004294037449188
82.9072105716748,0.0044684354070507
82.93593794886526,0.0045875539047366
82.96466532605572,0.0045108107619673
82.99339270324619,0.0042524365311494
83.02212008043665,0.0042611221785794
83.05084745762711,0.0045229343022622
83.07957483481758,0.0045057761349967
83.10830221200804,0.0046390847993676
83.1370295891985,0.0046426747669617
83.16575696638897,0.0045005579960456
83.19448434357942,0.0043790114683229
83.22321172076988,0.0045801742358721
83.25193909796035,0.0043022771532566
83.28066647515081,0.0041491028300454
83.30939385234127,0.0043982120375335
83.33812122953174,0.0043809960728757
83.3668486067222,0.0041682309455257
83.39557598391266,0.0040517696119382
83.42430336110313,0.00422217295129
83.45303073829359,0.004333890774299
83.48175811548406,0.0042483820407479
83.51048549267452,0.004183836327349
83.53921286986497,0.0041957230964903
83.56794024705543,0.004270687147149
83.5966676242459,0.0042838647701808
83.62539500143636,0.0041358317372636
83.65412237862682,0.0040080705345711
83.68284975581729,0.004044076799271
83.71157713300775,0.0041536576388985
83.74030451019821,0.0041039427821636
83.76903188738868,0.0040547669562544
83.79775926457914,0.0040639803249627
83.8264866417696,0.0040598459342643
83.85521401896007,0.0040409326322431
83.88394139615052,0.0042747273380976
83.91266877334098,0.0042027699152322
83.94139615053145,0.0041019061860259
83.97012352772191,0.004227597838663
83.99885090491237,0.0040575471303831
84.02757828210284,0.0042854566298323
84.0563056592933,0.0044828716911942
84.08503303648376,0.0043175536898059
84.11376041367423,0.0043149523020664
84.14248779086469,0.0044106157131705
84.17121516805516,0.0045256899571425
84.19994254524562,0.0044028093282307
84.22866992243607,0.0042140900071023
84.25739729962653,0.0041084295508022
84.286124676817,0.0039691099655266
84.31485205400746,0.0039647526342128
84.34357943119792,0.003958131689147
84.37230680838839,0.003958018524195
84.40103418557885,0.0040706659732571
84.42976156276931,0.0041608920503776
84.45848893995978,0.0041382110677595
84.48721631715024,0.0040796657354992
84.5159436943407,0.0044665739838107
84.54467107153117,0.0043796484155175
84.57339844872162,0.0040595581162194
84.60212582591208,0.0044931450907723
84.63085320310255,0.0044177574599556
84.65958058029301,0.0037701514188869
84.68830795748347,0.003832488364188
84.71703533467394,0.0048400892765291
84.7457627118644,0.0029618582884202
84.77449008905486,0.003939180389645
84.80321746624533,0.0039893633130716
84.83194484343579,0.0041715074854319
84.86067222062626,0.0040881804720195
84.88939959781672,0.0039666239020587
84.91812697500717,0.0042586275098837
84.94685435219763,0.0040802113136872
84.9755817293881,0.0045686111180249
85.00430910657856,0.0044870280372993
85.03303648376902,0.0040081892337413
85.06176386095949,0.0040683648385687
85.09049123814995,0.0044171566158133
85.11921861534042,0.0036164075644645
85.14794599253088,0.0036657638783343
85.17667336972134,0.0039860368496076
85.2054007469118,0.0039857916026867
85.23412812410227,0.0039598003753562
85.26285550129272,0.004272900628201
85.29158287848318,0.0042535305438098
85.32031025567365,0.0039440906783204
85.34903763286411,0.0050198241326294
85.37776501005457,0.010633192227482333
85.40649238724504,0.012195919712784475
85.4352197644355,0.0181763087670209
85.46394714162597,0.0178346976306215
85.49267451881643,0.0175674048406323
85.52140189600689,0.017700098054313
85.55012927319736,0.0176184238449589
85.57885665038782,0.0177224769162073
85.60758402757827,0.0166032584391555
85.63631140476873,0.011218609462678766
85.6650387819592,0.0056638052280832
85.69376615914966,0.0048539597118876
85.72249353634012,0.0048497326357801
85.75122091353059,0.0047644196362133
85.77994829072105,0.004527501173131
85.80867566791152,0.0042313300534448
85.83740304510198,0.0043141819099855
85.86613042229244,0.0044720796916716
85.8948577994829,0.0043498020408937
85.92358517667337,0.0043637754645162
85.95231255386382,0.0043406718793107
85.98103993105428,0.0041344742542876
86.00976730824475,0.0040664911106263
86.03849468543521,0.0039186475058427
86.06722206262567,0.0038898934646754
86.09594943981614,0.0044820676619999
86.1246768170066,0.003957525648784
86.15340419419707,0.004255538698304
86.18213157138753,0.004463021564706
86.210858948578,0.004323527987295
86.23958632576846,0.0042868753042475
86.26831370295892,0.0047629107837963
86.29704108014937,0.004660740464531
86.32576845733983,0.0040629814184234
86.3544958345303,0.004446873676439
86.38322321172076,0.0044036502693795
86.41195058891122,0.0043017512713364
86.44067796610169,0.0041251243072721
86.46940534329215,0.0040167274507007
86.49813272048262,0.0043284240705585
86.52686009767308,0.0041386636772618
86.55558747486354,0.0039548391510458
86.584314852054,0.0039050246787872
86.61304222924447,0.0037798356333757
86.64176960643492,0.0042051832664915
86.67049698362538,0.0041029246676729
86.69922436081585,0.0040085623631673
86.72795173800631,0.0042028514271107
86.75667911519677,0.0043267202345051
86.78540649238724,0.0042796492640016
86.8141338695777,0.0040545262607736
86.84286124676817,0.00399365450588
86.87158862395863,0.0040487529998355
86.9003160011491,0.0041553890402712
86.92904337833956,0.0043496269278664
86.95777075553002,0.0041045040810824
86.98649813272047,0.0039844503111979
87.01522550991093,0.0038612346901435
87.0439528871014,0.004128840040454
87.07268026429186,0.004245309367543
87.10140764148233,0.0040827116617173
87.13013501867279,0.0041049768183222
87.15886239586325,0.0042902095221099
87.18758977305372,0.0042716055177437
87.21631715024418,0.0042847713970887
87.24504452743464,0.0041442578392884
87.27377190462511,0.0041616295632269
87.30249928181557,0.0044085198703518
87.33122665900602,0.0041152784187805
87.35995403619648,0.0042470815174736
87.38868141338695,0.0041303967314383
87.41740879057741,0.0042115394998692
87.44613616776788,0.0042580018427273
87.47486354495834,0.0042116522212032
87.5035909221488,0.0043005948449424
87.53231829933927,0.0044413739985674
87.56104567652973,0.0046752693589633
87.5897730537202,0.0047683019233195
87.61850043091066,0.0047186333425984
87.64722780810112,0.0047295036243675
87.67595518529157,0.0046393534303761
87.70468256248203,0.0044749196631253
87.7334099396725,0.0043177747264674
87.76213731686296,0.0041117642087192
87.79086469405343,0.0038970071629338
87.81959207124389,0.0041929624825464
87.84831944843435,0.0040500673510702
87.87704682562482,0.0036030727633061
87.90577420281528,0.0039280959420534
87.93450158000574,0.0040512479623772
87.96322895719621,0.0040534295519665
87.99195633438667,0.0040957203428397
88.02068371157712,0.0042191723400386
88.04941108876758,0.0041083636584218
88.07813846595805,0.0043242524034005
88.10686584314851,0.0046053327705049
88.13559322033898,0.0042574268772609
88.16432059752944,0.0041827766791034
88.1930479747199,0.0043837446311132
88.22177535191037,0.0045059919553654
88.25050272910083,0.0042077092352963
88.2792301062913,0.0044786887607264
88.30795748348176,0.0041970359312566
88.33668486067221,0.003961467135606
88.36541223786267,0.0040763691920562
88.39413961505313,0.0042362679087092
88.4228669922436,0.0041379241513488
88.45159436943406,0.0039243109559785
88.48032174662453,0.0041035822580095
88.50904912381499,0.0042244020584706
88.53777650100545,0.0039983958739723
88.56650387819592,0.0039516413902712
88.59523125538638,0.0041281188342258
88.62395863257684,0.0041667663336368
88.65268600976731,0.0041945114615148
88.68141338695776,0.0042830372510333
88.71014076414822,0.004280108024848
88.73886814133868,0.0040874545127447
88.76759551852915,0.0041534114178906
88.79632289571961,0.0043759379748522
88.82505027291008,0.0042446946658073
88.85377765010054,0.0042989268208592
88.882505027291,0.004128980749099
88.91123240448147,0.0041957790096182
88.93995978167193,0.0041132691466117
88.9686871588624,0.0042725584368174
88.99741453605286,0.004246498231387
89.02614191324331,0.0043285909257463
89.05486929043377,0.0042036559421066
89.08359666762424,0.0043181132859381
89.1123240448147,0.0040864367605054
89.14105142200516,0.0040714872460368
89.16977879919563,0.0042028862323963
89.19850617638609,0.0041071061002446
89.22723355357655,0.0037792778221607
89.25596093076702,0.0053011151990631
89.28468830795748,0.0084578269111114
89.31341568514794,0.009858970392533
89.34214306233841,0.0108802933702269
89.37087043952886,0.0111995494164093
89.39959781671932,0.0110254693839551
89.42832519390979,0.0111090896021855
89.45705257110025,0.0111783764813368
89.48577994829071,0.0106494939400767
89.51450732548118,0.0080436408030233
89.54323470267164,0.0050775972507359
89.5719620798621,0.0043413718964447
89.60068945705257,0.0045037086546656
89.62941683424303,0.0043704636498961
89.6581442114335,0.0044751052933318
89.68687158862396,0.0042514893505638
89.71559896581441,0.0047600626708254
89.74432634300487,0.0044743381068608
89.77305372019534,0.004409702601629
89.8017810973858,0.0041660637452817
89.83050847457626,0.0034493046440425
89.85923585176673,0.0054046911590885
89.88796322895719,0.004797588294365
89.91669060614765,0.0044564909572155
89.94541798333812,0.0047676678512123
89.97414536052858,0.00472499389827
90.00287273771904,0.0045272729239612
90.03160011490951,0.0044669557715022
90.06032749209996,0.0045505061046237
90.08905486929042,0.0041759953280043
90.11778224648089,0.0041573389242029
90.14650962367136,0.0042507683411912
90.1752370008618,0.0042532608435042
90.20396437805228,0.0042763596023848
90.23269175524274,0.0042512935659377
90.2614191324332,0.0042019612164253
90.29014650962368,0.0042790534671714
90.31887388681412,0.0042693326296159
90.3476012640046,0.0041191986110366
90.37632864119506,0.0041360390592696
90.40505601838552,0.0041798261778329
90.43378339557596,0.0040642917872224
90.46251077276644,0.0043236609584653
90.4912381499569,0.0047299969237364
90.51996552714736,0.0046598782273229
90.54869290433784,0.0044473521051403
90.57742028152828,0.0043961321866223
90.60614765871875,0.004381319828887
90.63487503590922,0.0043369999361199
90.66360241309968,0.004268523873004
90.69232979029016,0.0042882068048697
90.7210571674806,0.0042586549041135
90.74978454467106,0.0039458755871232
90.77851192186152,0.0041501298290811
90.807239299052,0.0041951103637505
90.83596667624244,0.0037637537893396
90.86469405343291,0.0040624716593045
90.89342143062338,0.0044686748251053
90.92214880781384,0.0039001285897486
90.9508761850043,0.0038694609820741
90.97960356219475,0.0039338136973753
91.00833093938525,0.0039837118456616
91.0370583165757,0.0041048477642673
91.06578569376616,0.0037392564795534
91.0945130709566,0.0040176497803213
91.12324044814709,0.0039296067261718
91.15196782533754,0.0040501419158215
91.180695202528,0.0036885272630268
91.20942257971846,0.0023363956923459
91.23814995690891,0.0043780886188732
91.2668773340994,0.0041033593252251
91.29560471128984,0.003621115324037
91.32433208848032,0.0038461127291826
91.35305946567078,0.0040617733651045
91.38178684286125,0.0040663822605805
91.41051422005172,0.0039714871722914
91.43924159724216,0.00393209861843
91.46796897443262,0.0040327751502085
91.49669635162309,0.0041822257552366
91.52542372881356,0.0040229888651381
91.554151106004,0.0038772299516853
91.58287848319448,0.0040579822222832
91.61160586038494,0.0037450425473136
91.6403332375754,0.0040716771431801
91.66906061476588,0.0037492318411679
91.69778799195632,0.0037920326631153
91.7265153691468,0.0040612527076669
91.75524274633726,0.0040467812079881
91.78397012352772,0.004131715809954
91.81269750071816,0.0045085476760475
91.84142487790864,0.004702369523193
91.8701522550991,0.0044510874839113
91.89887963228956,0.0045045923550291
91.92760700948004,0.0044494113332601
91.95633438667048,0.0043847833351204
91.98506176386095,0.0044190844479936
92.01378914105142,0.0045213096521278
92.04251651824188,0.0045788914915027
92.07124389543236,0.0046666533202861
92.0999712726228,0.0044077918196466
92.12869864981326,0.0042427469740074
92.15742602700372,0.0044153515350695
92.1861534041942,0.0044336378076459
92.21488078138464,0.0043392591413487
92.24360815857511,0.0043687191001863
92.27233553576558,0.0043130443279636
92.30106291295604,0.0042756738132139
92.3297902901465,0.0044779158759809
92.35851766733695,0.0040768103358508
92.38724504452745,0.0042302405612902
92.4159724217179,0.0041785946950521
92.44469979890836,0.0039586811295107
92.4734271760988,0.0039759216117647
92.50215455328927,0.0041429694185377
92.53088193047974,0.004090579442845
92.5596093076702,0.0040309409846449
92.58833668486066,0.0040666809714903
92.61706406205111,0.0041576555680059
92.6457914392416,0.0041947454693822
92.67451881643206,0.0042269281757491
92.70324619362252,0.0042948032029077
92.73197357081298,0.0043205507143834
92.76070094800345,0.0042993972404307
92.78942832519392,0.0042659483527016
92.81815570238436,0.0042384055698899
92.84688307957482,0.0042097712092999
92.87561045676529,0.0041672172447442
92.90433783395576,0.0042475340659189
92.9330652111462,0.0042020835111995
92.96179258833668,0.0039265327936367
92.99051996552714,0.0041146035867997
