timestamp,rms
0.0,0.0036136169741715
0.02873086929321289,0.0040634034254197
0.05746173858642223,0.0066267898568333
0.08619260787963867,0.0076367875438368
0.11492347717285156,0.0074481651771502
0.14365434646606445,0.0061774322515509
0.1723852157592809,0.0033146261935081
0.20111608505249023,0.0038404176538247
0.22984695434570312,0.0030935131344924
0.2585775852203369,0.0035306151017905
0.2873084545135498,0.0036076416640284
0.3160390853881836,0.0040841709235423
0.3447701930999756,0.0036627415908166
0.3735013008117676,0.0033263844033282
0.40223193168640137,0.0033933168274371
0.43096280097961426,0.0043102051321948
0.45969367027282715,0.0060741992197928
0.48842453956604004,0.0076626573292726
0.5171554088592529,0.0070488874271563
0.5458860397338867,0.0066639399798945
0.5746166706085205,0.0045081817854211
0.6033477783203125,0.0047647011423241
0.6320786476135289,0.0053782096825697
0.6608095169067383,0.0070315578387715
0.6895403861999512,0.0055934526686395
0.7182712554931641,0.0063815591741461
0.7470018863678014,0.0046999333431242
0.7757329940795898,0.0049560349652701
0.8044636249542236,0.0040544495615579
0.8331944942474365,0.0045675879922717
0.8619253635406494,0.0055458535262049
0.8906562328338623,0.0070665439000144
0.9193871021270752,0.0070428931678785
0.9481179714202881,0.0062084227715528
0.976848840713501,0.0047758059862882
1.0055794715881348,0.0035100998056612
1.0343105792999268,0.0033078818532615
1.0630412101745605,0.003115269910453
1.091772079467777,0.0029476822009673
1.1205029487609828,0.0036494086398729
1.1492338180541992,0.0039372144429389
1.177964687347412,0.0047409335020199
1.206695556640625,0.0049281207238883
1.2354264259338414,0.0050645696983364
1.2641572952270508,0.0065024601943662
1.2928881645202637,0.0072188669595609
1.3216187953948975,0.006852103293125
1.3503496646881104,0.0058611768619562
1.3790805339813232,0.0045964152751208
1.4078114032745361,0.0060399386171705
1.436542272567749,0.0064503049364842
1.4652731418609584,0.0070746018648008
1.4940040111541748,0.0055254393452145
1.5227348804473877,0.005484074619393
1.5514657497406006,0.0050122395123301
1.5801963806152344,0.0057395326986798
1.6089272499084473,0.0058039629900773
1.637657880783081,0.0052517921124084
1.666388988494873,0.0045940083412221
1.695120096206665,0.0044264720815253
1.7238507270812988,0.0053532230649431
1.7525815963745117,0.0058446448878678
1.7813124656677246,0.0057848860611122
1.8100433349609375,0.0060518817075888
1.8387742042541504,0.0051568578284981
1.8675048351287842,0.0058036987070077
1.8962354660034144,0.0048822132776424
1.92496657371521,0.0049426437146031
1.9536976814269984,0.0046165191783564
1.9824283123016357,0.0048983255252383
2.0111591815948486,0.0055319120924836
2.0398900508880615,0.0057469752688892
2.0686206817626953,0.0070847951174816
2.0973517894744873,0.0068079374540264
2.126082420349121,0.0072139292475948
2.1548132896423375,0.0061749549394408
2.183544158935547,0.0053927743240495
2.2122750282287598,0.0075627105173245
2.2410058975219727,0.0071187282629309
2.2697367668151855,0.0080799157316379
2.2984676361083984,0.0072568428194964
2.3271985054016113,0.0063300781659256
2.355929374694824,0.006942254098657
2.3846600055694545,0.0055477533369012
2.413390874862671,0.0066344487908135
2.442121744155884,0.006282053960611
2.4708526134490967,0.0064131145124815
2.4995834827423096,0.0048122430169121
2.5283143520355225,0.0061635276579754
2.5570452213287354,0.0080897995198463
2.5857760906219482,0.0079670782353605
2.614506959915161,0.007505787848998
2.643237590789795,0.0047305597461164
2.671968460083008,0.0056945350486266
2.7006990909576416,0.0067979764714893
2.7294301986694336,0.012519110931764
2.7581610679626465,0.0146666631786449
2.7868919372558594,0.0191000337526055
2.8156228065490723,0.0170672477556144
2.844353675842285,0.0175053243239375
2.8730845451354945,0.0175436353599079
2.901815176010132,0.01679161213421
2.9305460453033447,0.0181729506260579
2.9592766761779785,0.0177874468208731
2.9880077838897705,0.0200811791124841
3.0167386531829834,0.0219918998924852
3.0454695224761963,0.023229801240667
3.074200391769409,0.021073798151345
3.102931261062622,0.0198746075151672
3.131661891937256,0.0183655082323151
3.160392999649048,0.0195175159499736
3.189123630523678,0.0207765960250457
3.2178544998168945,0.0202392126766179
3.2465853691101074,0.019980790136971
3.2753164768218994,0.0205883815494886
3.304047107696533,0.0200506752500642
3.3327779769897425,0.020347714073352
3.361508846282959,0.014534931942534
3.3902394771575928,0.0111220163930776
3.4189705848693848,0.0068435795562971
3.4477012157440186,0.0070157792862483
3.4764320850372314,0.0080664075663953
3.5051629543304443,0.0065272860489719
3.5338938236236572,0.0057008409582722
3.56262469291687,0.0055062156937488
3.591355562210083,0.006210130072955
3.620086431503296,0.0076352805992963
3.648817300796509,0.0071320926773889
3.677548170089718,0.0074311206421038
3.7062788009643555,0.0061390722906031
3.7350096702575684,0.0067802378539428
3.7637405395507812,0.0073718439345481
3.7924714088439906,0.0073547910391152
3.821202278137207,0.0078503153903966
3.84993314743042,0.006475499869198
3.878664016723633,0.0074815379260404
3.9073948860168493,0.0063135532049183
3.9361257553100586,0.0060647357284357
3.9648563861846924,0.0056433764803382
3.9935872554779053,0.0066736391738156
4.022317886352539,0.0062032509124663
4.051048994064331,0.0061401584556544
4.079780101776123,0.0043828221672308
4.108510732650757,0.0045454758138606
4.13724160194397,0.0061650721566037
4.165972471237183,0.0067189715737591
4.1947033405303955,0.0065082758735827
4.223433971405029,0.0052305612981786
4.252164840698239,0.0039829172877787
4.280895471572876,0.0047991783841828
4.309626579284668,0.0048402348474887
4.33835768699646,0.0057611627197751
4.367088317871097,0.0071070423445007
4.395819187164307,0.0064048921606411
4.4245500564575195,0.0077529232827518
4.453280687332153,0.0086370019696238
4.482011795043945,0.0087497920588161
4.510742425918579,0.0093311373438295
4.539473295211792,0.006612823927781
4.568204164505005,0.0055108171127111
4.596935272216797,0.0050317311126489
4.625665903091431,0.0148485203974556
4.6543967723846436,0.0137144676630452
4.6831276416778564,0.0157080284583828
4.711858510971069,0.0087500486006031
4.740589380264279,0.0057871612609992
4.769320011138916,0.0087255784467964
4.798050880432129,0.0084687588897084
4.826781749725345,0.0085138435438252
4.855512619018555,0.006405667324022
4.884243488311768,0.0077167868301026
4.9129743576049805,0.0073553667752369
4.941705226898193,0.0083571523509685
4.970436096191406,0.0064539925396013
4.999166965484619,0.0054869958094743
5.027897596359253,0.0044053587809278
5.056628465652462,0.008091756831548
5.085359334945679,0.009746602610844
5.114090204238892,0.0098705750971023
5.1428210735321045,0.0083896820260756
5.171551942825321,0.0050271139310817
5.20028281211853,0.0061019367720188
5.229013681411743,0.0067937865250717
5.257744550704956,0.0083192759454352
5.28647518157959,0.0073780254469475
5.315206050872803,0.0074935550602023
5.3439366817474365,0.0060705139575779
5.3726677894592285,0.0054711836518115
5.401398658752441,0.0056443540578672
5.430129528045654,0.0060170032579528
5.458860397338867,0.0060424470867303
5.48759126663208,0.0058684630984373
5.516322135925293,0.0046157052594428
5.545053005218502,0.0036408272257228
5.57378363609314,0.0033644390278263
5.6025145053863525,0.0032080223251107
5.631245374679569,0.0037110960188784
5.659976482391361,0.0038611497556437
5.688707113265991,0.0039750320410136
5.717437982559204,0.0038735273331277
5.746168851852417,0.0045246327776595
5.774899482727051,0.0056779700632729
5.803630590438843,0.005553575382685
5.832361221313477,0.0055641469867257
5.8610920906066895,0.0042747631193551
5.889822959899902,0.0042042449487028
5.918553829193115,0.0039108400615473
5.947284698486328,0.0045529325965452
5.976015567779541,0.0044365436828636
6.00474643707275,0.0047841618704517
6.033477067947388,0.0047543553502496
6.06220817565918,0.004693393657739
6.090938806533817,0.0043602455257859
6.119669675827026,0.0045825864224325
6.148400545120239,0.0046122992362025
6.177131414413452,0.005886699054279
6.205862283706665,0.0058603253331129
6.2345931529998815,0.006952448995733
6.263324022293091,0.0064668937506546
6.292054891586304,0.0075199697990751
6.320785760879517,0.0066587862483245
6.34951639175415,0.0059301905341677
6.378247261047363,0.0045625704523792
6.406977891921997,0.003670648883973
6.435708999633789,0.0043605548743381
6.464439868926998,0.0044957689255951
6.493170738220215,0.0043124099728048
6.521901607513428,0.0041184793067408
6.550632476806641,0.0053437848712271
6.579363346099857,0.0050825954653401
6.608093976974487,0.0063371329074982
6.6368248462677,0.0060409466113287
6.6655554771423375,0.0073909531129169
6.6942865848541295,0.010763073777684
6.7230176925659215,0.0122911962865586
6.751748323440552,0.0136733694019616
6.780479192733765,0.0138906641330407
6.8092100620269775,0.0119915156475683
6.837940692901611,0.0125041142479334
6.866671800613403,0.0127203030780619
6.895402431488037,0.0125351749699983
6.92413330078125,0.0139912621493161
6.952864170074463,0.0164395366227075
6.981595277786255,0.0189830997274534
7.010325908660889,0.0220210791444638
7.039056777954102,0.0228823389845357
7.0677876472473145,0.0221442589068966
7.096518516540527,0.0228808811526747
7.12524938583374,0.0205112777682547
7.153980016708378,0.0226491760409177
7.182710886001587,0.0209669701271761
7.2114417552948,0.0237952704249953
7.240172624588013,0.0220102972206222
7.268903493881226,0.0197521430739845
7.2976343631744385,0.0146911544339067
7.326365232467651,0.0082052379536243
7.355096101760864,0.0043440427187317
7.383826971054077,0.0050015071341649
7.412557601928711,0.0048371911857897
7.441288471221924,0.0058102365489359
7.470019340515137,0.0061105601400556
7.49875020980835,0.0051712799914626
7.5274810791015625,0.0051956736358005
7.556211948394775,0.0035592370985201
7.584942817687988,0.0041710722149231
7.613673686981201,0.0052695360542557
7.642404556274418,0.0050668089806848
7.671135187149048,0.0052624888513116
7.699866056442261,0.0039064429209815
7.7285966873168945,0.0037591454164664
7.7573277950286865,0.003133537158314
7.786058664321899,0.0021948344532614
7.814789533615112,0.0030677831787911
7.843520402908325,0.0030264134924986
7.872251272201538,0.0036073779198592
7.900982141494751,0.0042937568597455
7.929712772369385,0.0052394378717949
7.958443641662601,0.0050603256861537
7.9871745109558105,0.0047089997289039
8.015905380249023,0.00348900139551
8.044636487960815,0.0033241566426444
8.07336711883545,0.0037938433619021
8.102097988128662,0.0033277718789331
8.130828857421875,0.0043037564558114
8.159559488296509,0.0041150902343006
8.1882905960083,0.004859872239507
8.217021226882935,0.004296523489816
8.245752096176147,0.0041148420676514
8.27448296546936,0.0039672649329508
8.303214073181152,0.0038342900016465
8.331944704055783,0.0035258461601524
8.360675573348999,0.0044131600264189
8.389406442642212,0.0052205864290052
8.41813707351685,0.0057906295016895
8.446868181228641,0.0052662030127341
8.475598812103271,0.003853166775732
8.504329681396484,0.0035092612074099
8.533060550689697,0.0039566565185626
8.56179141998291,0.0038908880835739
8.590522289276123,0.0044273444758225
8.619253158569336,0.0037217616918147
8.647984027862549,0.0038299335258696
8.676714897155758,0.0039296625109087
8.705445766448975,0.0038774592736706
8.734176397323608,0.0040211246066528
8.762907266616821,0.0039486336040586
8.79163813591003,0.0040061246154146
8.820369005203247,0.0069974815554652
8.84909987449646,0.0070231990465776
8.877830743789673,0.0072292388440657
8.90656161308289,0.0050906919983947
8.935292482376099,0.0025715043345508
8.964023351669312,0.0032837988044495
8.992753982543945,0.0034147385274536
9.021484851837158,0.0031214352367502
9.050215482711792,0.0033308750849875
9.078946590423584,0.003916455040718
9.107677698135376,0.0057023846154844
9.13640832901001,0.0055170771066579
9.165139198303223,0.0054079620327226
9.193870067596436,0.0036770448725006
9.222600936889648,0.0029460709609123
9.251331806182861,0.0033332427792594
9.280062437057495,0.0030485338662458
9.308793067932129,0.003133870230851
9.337524175643921,0.0034419353959458
9.366255283355713,0.0031459888395225
9.394985914230347,0.0043703290798383
9.42371678352356,0.0047681179863142
9.452447652816772,0.0049500521298249
9.481178522109985,0.0048543161668474
9.509909391403198,0.0040382763614558
9.538640022277832,0.0040455659068822
9.567370891571045,0.003683103914699
9.596101760864254,0.0044441201799942
9.62483263015747,0.0037908338677623
9.653563499450684,0.0043278107952183
9.682294368743896,0.0044821647205829
9.71102523803711,0.0042362390464795
9.739755868911743,0.004325697930629
9.768486976623535,0.0035013054050525
9.797217607498169,0.0034110371546017
9.825948476791385,0.0034899648497084
9.854679346084595,0.0040705194151603
9.883410215377808,0.0042827775267504
9.91214108467102,0.0040729138339862
9.940871953964233,0.0046989333850598
9.969602823257446,0.0043524781818123
9.99833369255066,0.0041045618697548
10.027064561843872,0.0044562342548546
10.055795192718502,0.0032553698714322
10.084526062011719,0.0037769413529926
10.113256692886353,0.0031471904100003
10.141987800598145,0.0030531994915457
10.170718669891361,0.0029596710130847
10.19944953918457,0.0037210844078537
10.228180408477783,0.0041823656426463
10.256911277770996,0.0047569334362788
10.285642147064209,0.0048682879264806
10.314372777938843,0.0044096094675403
10.343103647232056,0.0036585865995324
10.371834516525269,0.0032747761166834
10.400565385818481,0.0030532533780142
10.429296493530273,0.0034415475000119
10.458027124404907,0.0039311189568684
10.48675799369812,0.0043270004072787
10.515488862991333,0.003554078810994
10.544219493865967,0.0039562812286237
10.572950601577759,0.0034858923888123
10.601681232452393,0.0040690272831649
10.630412101745609,0.0060045614277602
10.659142971038818,0.0133051124165941
10.68787407875061,0.0162915777273071
10.716604709625244,0.017602260163855
10.745335578918457,0.0175005432611469
10.77406644821167,0.0156839360449083
10.802797079086304,0.0149159963607098
10.831528186798096,0.0136538610349504
10.86025881767273,0.0108394242224635
10.888989686965942,0.0130953728488352
10.917720556259155,0.0162107289552791
10.946451425552368,0.0225366215525121
10.975182294845581,0.0262286598785924
11.00391316413879,0.0278725237576336
11.032644033432007,0.0257508565181731
11.06137490272522,0.0214076061348256
11.090105772018433,0.0208083959182986
11.118836402893066,0.0199163875641791
11.14756727218628,0.0202358859505656
11.176298141479492,0.0189201668085001
11.205029010772705,0.015326362447759
11.233759880065922,0.012586789546926
11.26249074935913,0.0090643259542093
11.291221618652344,0.0034566379426435
11.319952487945557,0.0049806281456391
11.34868335723877,0.0028262372152173
11.377413988113403,0.0026066071364252
11.406144857406616,0.0032709833103226
11.43487548828125,0.0037352648987112
11.463606595993038,0.0040142692389774
11.492337465286255,0.0034831003193014
11.521068334579468,0.0032313765950723
11.54979920387268,0.0034945977036694
11.578530073165897,0.0027071981436987
11.607260942459106,0.0033582145891717
11.63599157333374,0.002877300669465
11.664722442626953,0.0036416762179809
11.693453073501587,0.0041959076069866
11.722184181213379,0.0043630433278845
11.750915288925171,0.0040242482968956
11.779645919799805,0.0038116146214262
11.808376789093018,0.003451991391949
11.83710765838623,0.0039409313505005
11.865838527679443,0.0050167860046075
11.894569396972656,0.0046485356686158
11.92330002784729,0.0048225975412193
11.952030897140503,0.0035881259404358
11.980761766433716,0.0046424134760002
12.009492635726929,0.0059118410965958
12.038223505020142,0.0055099125925206
12.066954374313354,0.0058863230176369
12.095685243606567,0.0039192877789558
12.124415874481201,0.004871620438846
12.153146982192993,0.0048659362378283
12.181877613067627,0.0050296308282301
12.21060848236084,0.0044791489073581
12.239339351654053,0.0038532940373244
12.268070220947266,0.003545543278635
12.296801090240479,0.0036407830617017
12.325531959533691,0.0072767949925576
12.354262828826904,0.0075977955520159
12.382993698120117,0.0079059611728478
12.41172456741333,0.0074023898040044
12.440455198287964,0.0058843311494261
12.469186067581177,0.0063168863267708
12.49791693687439,0.0050553923075966
12.526647806167603,0.0035580567401918
12.555378675460815,0.0034148301565695
12.584109544754028,0.0034634509536504
12.612840414047241,0.0039201908778152
12.641571283340454,0.0034057317621003
12.670302152633667,0.0038645621898865
12.6990327835083,0.0036646455565287
12.727763652801514,0.0040495735228241
12.756494522094727,0.0035149565098975
12.78522539138794,0.0039470112366716
12.813956499099731,0.0035543569743056
12.842687129974365,0.0042792853684082
12.871417999267578,0.0039195005510393
12.900148868560791,0.0033487844136623
12.928879737854004,0.0038577608918666
12.957610607147217,0.0035968105841217
12.98634123802185,0.0045090185321525
13.015071868896484,0.0041366224866686
13.043802976608276,0.0048447890283068
13.072534084320068,0.0043807526490193
13.101264715194702,0.0047542283845735
13.129995584487915,0.0041113983910554
13.158726453781128,0.0045513547348776
13.187457084655762,0.0043296978272012
13.216188192367554,0.004177591656171
13.244918823242188,0.0033074728007763
13.2736496925354,0.0028455386981121
13.302380561828613,0.002806430017827
13.331111431121826,0.0031319605943378
13.359842300415039,0.0032062837453783
13.388573169708252,0.0035338473807277
13.417304039001465,0.0034832408507681
13.446034669876099,0.0034353689939622
13.47476577758789,0.0032791278456866
13.503496408462524,0.0033629041126264
13.532227277755737,0.0041239649823249
13.56095814704895,0.0040653441205094
13.589689016342163,0.0043521621388038
13.618419885635376,0.0032980679336889
13.647150754928589,0.0036054676246436
13.675881624221802,0.003594660121124
13.704612493515015,0.0037818899873345
13.733343362808228,0.0038688544936922
13.762073993682861,0.00321853498876
13.790804862976074,0.0036554270898006
13.819535493850708,0.0031779846373912
13.8482666015625,0.0033419809487121
13.876997470855713,0.0035098378045021
13.905728340148926,0.0033612131654388
13.934459209442139,0.0038550892736629
13.963190078735352,0.0035410896495598
13.991920948028564,0.0035152373763581
14.020651578903198,0.0030353779956937
14.049382448196411,0.0036707908736147
14.078113079071045,0.0035710500025744
14.106844186782837,0.0040576150447618
14.135575294494629,0.0037430708053672
14.164305925369263,0.0031780386213812
14.193036794662476,0.003088170414109
14.221767663955688,0.0023959726210427
14.250498533248901,0.0033111934306553
14.279229402542114,0.0032069847676187
14.307960033416748,0.0033002979672785
14.336690902709961,0.0034239798047848
14.365421772003174,0.0030213821943726
14.394152641296387,0.0036472879777943
14.4228835105896,0.0033024667433652
14.451614379882812,0.0029745259392637
14.480345249176025,0.0033657917732392
14.50907588005066,0.0036391965682156
14.537806987762451,0.0036454323176861
14.566537618637085,0.0056129363018342
14.595268487930298,0.0081386058556522
14.62399935722351,0.0112094104636842
14.652730226516724,0.0145704167540187
14.681461095809937,0.0141824617855693
14.71019196510315,0.0135110475068787
14.738922834396362,0.0105446521235379
14.767653465270996,0.0145081581021395
14.796384572982788,0.0175545810413195
14.825115203857422,0.0216874171221929
14.853846073150635,0.0217563019055292
14.882576942443848,0.0214933523035167
14.91130781173706,0.0219612935199874
14.940038681030273,0.0211626719841875
14.968769550323486,0.0200848818046517
14.9975004196167,0.0185539417116915
15.026231288909912,0.016254649910556
15.054962158203125,0.0165000933460049
15.083692789077759,0.0185700281790981
15.112423658370972,0.0169188239021985
15.141154527664185,0.0153475702966951
15.169885396957397,0.0095123592600584
15.19861626625061,0.0027939074190128
15.227347135543823,0.0025786733278643
15.256078004837036,0.0027610536554915
15.284808874130249,0.0028766378187015
15.313539743423462,0.0027553985259101
15.342270374298096,0.0031562195137263
15.371001243591309,0.0041876977892408
15.399731874465942,0.0039931299156996
15.428462982177734,0.0042426877588227
15.457194089889526,0.0028914109930546
15.48592472076416,0.002684210101084
15.514655590057373,0.0030569552794085
15.543386459350586,0.0039391810233584
15.57211709022522,0.0038104285130367
15.600848197937012,0.0039246610874415
15.629578828811646,0.0024915120388177
15.658309698104858,0.0023451062126485
15.687040567398071,0.0022687304911071
15.715771675109863,0.0022875536493076
15.744502305984497,0.002130351889822
15.77323317527771,0.0018151310912201
15.801964044570923,0.0015474341794093
15.830694675445557,0.0019189315905398
15.859425783157349,0.0031362759963909
15.888156414031982,0.0035287149681464
15.916887283325195,0.0036652367750892
15.945618152618408,0.0029839944564847
15.974349021911621,0.0022162631887138
16.003079891204834,0.0020902223200936
16.031810760498047,0.0020630743294909
16.06054162979126,0.0022493695457558
16.089272499084473,0.0025556839944866
16.118003368377686,0.0029392541584484
16.14673399925232,0.0027904978696283
16.175464868545532,0.00255653951437
16.204195737838745,0.0019107165306698
16.232926607131958,0.0022740152512134
16.26165747642517,0.0021499645410683
16.290388345718384,0.0032756526377975
16.319119215011597,0.0031563637530322
16.34785008430481,0.0033384549846585
16.376580953598022,0.0033657451081797
16.405311584472656,0.0028248812397193
16.43404245376587,0.0028501414044253
16.462773084640503,0.0027606230497182
16.491504192352295,0.0028494408104542
16.520235300064087,0.0032979564683114
16.54896593093872,0.0034921902601325
16.577696800231934,0.0031789665539485
16.606427669525146,0.0034787136160575
16.63515853881836,0.0037258375739024
16.663889169692993,0.004057860953545
16.692620038986206,0.0041939320523082
16.72135066986084,0.0037755071210058
16.750081777572632,0.0044206607491645
16.778812646865845,0.0035899539051325
16.807543516159058,0.0048111517015638
16.83627438545227,0.0040243734484572
16.86500525474549,0.0042833166032928
16.893735885620117,0.0035607784080782
16.92246699333191,0.0025454426691178
16.951197624206543,0.0025487508405285
16.979928493499763,0.0028650607246568
17.00865936279297,0.0031322363300915
17.03739023208618,0.0033006559877267
17.066121101379395,0.0031263567837528
17.094851970672607,0.003764135617146
17.12358283996582,0.0040166343670892
17.152313470840454,0.0040573266617501
17.181044578552246,0.003727725338665
17.20977520942688,0.0044565791202827
17.238506078720093,0.004126998384562
17.267236948013306,0.0045511733077887
17.29596781730652,0.0032789493461448
17.32469868659973,0.0036385704632566
17.353429555892944,0.0033505732243472
17.382160425186157,0.0039298791215229
17.41089129447937,0.003639335794281
17.439622163772583,0.0032572532342435
17.468352794647217,0.003512934851345
17.49708366394043,0.0028277528948291
17.525814533233643,0.0030489005477501
17.554545402526855,0.0033642206455704
17.58327627182007,0.0032213534694301
17.61200714111328,0.003982709919015
17.640738010406494,0.003095403396985
17.669468879699707,0.0034857823036913
17.69819974899292,0.0034766734121404
17.726930379867554,0.0035195306792122
17.755661249160767,0.0040058422056239
17.7843918800354,0.0035602133470606
17.813122987747192,0.0033413116960911
17.841854095458984,0.00420717655562
17.870584726333618,0.004176785210556
17.89931559562683,0.0044253897242734
17.92804646492005,0.0037095998955588
17.956777334213257,0.0027816914001275
17.98550820350647,0.0030128846062372
18.014238834381104,0.0035500380019775
18.042969465255737,0.0032896248039012
18.07170057296753,0.0035769765634241
18.10043168067932,0.0029517880388269
18.129162311553955,0.0033159860396621
18.157893180847168,0.0032306679370086
18.18662405014038,0.0034491465286552
18.215354681015015,0.003097009507781
18.244085788726807,0.0033641726334919
18.27281641960144,0.0035529406186726
18.301547288894653,0.00378589224861
18.330278158187866,0.0037970036823259
18.35900902748108,0.0037007226243929
18.387739896774292,0.0034999347802167
18.416470766067505,0.0037147666911007
18.445201635360718,0.0034584392956188
18.47393250465393,0.0037213517635283
18.502663373947144,0.0027149525243585
18.531394004821777,0.0048281435252294
18.56012487411499,0.0075762959796064
18.588855743408203,0.0106022573592909
18.617586612701416,0.0122576931163848
18.64631748199463,0.0142601452119647
18.675048351287842,0.0146867109870806
18.703779220581055,0.0144842441149065
18.732510089874268,0.0129360766290063
18.76124095916748,0.0116559463941056
18.789971590042114,0.0102267943783942
18.818702459335327,0.0140774652266524
18.84743309020996,0.015295995016496
18.876164197921753,0.0200660407067952
18.904895067214966,0.0216526788174697
18.93362593650818,0.0236485578032503
18.96235680580139,0.0233868904286739
18.991087675094604,0.0242484131780472
19.019818544387817,0.0229618611099128
19.04854917526245,0.020589442319772
19.077280044555664,0.0186549508708584
19.106010675430298,0.0149465668286017
19.13474178314209,0.0140036220633457
19.163472652435303,0.0101813667586285
19.19220352172851,0.0050126471494739
19.22093439102173,0.0015140019953993
19.24966526031494,0.0028454622720533
19.278395891189575,0.0020795235694243
19.307126998901367,0.0024638162334431
19.335857629776,0.0020612820436794
19.364588499069214,0.0035004821146685
19.393319368362427,0.0034334802330898
19.42205047607422,0.004661539556784
19.450781106948853,0.0034347468833249
19.479511976242065,0.0042653191832991
19.50824284553528,0.0037313426200257
19.536973476409912,0.0040034695728328
19.565704584121704,0.0042956938375284
19.594435214996338,0.0037731343474155
19.62316608428955,0.0049241810074421
19.65189695358277,0.0042227583556783
19.680627822875977,0.004340161768338
19.70935869216919,0.0038210538537496
19.738089561462402,0.0037117034227868
19.766820430755615,0.0038258493361852
19.795551300048828,0.0034742562376511
19.82428216934204,0.0030164375746955
19.853012800216675,0.0030923227183832
19.881743669509888,0.0026997305918245
19.9104745388031,0.0032770135055698
19.939205408096313,0.0031655503184249
19.967936277389526,0.0036768599794173
19.99666714668274,0.004371761216682
20.025398015975952,0.0039276439164929
20.054128885269165,0.0040266625356964
20.082859754562378,0.0036655630835929
20.11159038543701,0.0036239931803526
20.140321254730225,0.0055553081768916
20.16905188560486,0.0055459672786875
20.19778299331665,0.0055837588181097
20.226514101028442,0.0045363819542
20.25524473190307,0.003123457493803
20.28397560119629,0.0037018445372133
20.312706470489502,0.0032646639785155
20.341437339782715,0.003250099236252
20.37016797065735,0.003116445069843
20.39889883995056,0.0036846482269436
20.427629470825195,0.0032650635260474
20.456360578536987,0.0033175931737257
20.48509168624878,0.0026484486253955
20.513822317123413,0.0033488975101352
20.542553186416626,0.0036980175451978
20.57128405570984,0.0037366280488556
20.600014686584473,0.0035060727174669
20.628745794296265,0.003259984389959
20.6574764251709,0.0035624995530619
20.68620729446411,0.0036914927929143
20.71493816375733,0.0035737330296481
20.743669033050537,0.0035155481377557
20.77239990234375,0.0038008592635744
20.801130771636963,0.0039572576908108
20.829861640930176,0.0035971820228507
20.85859251022339,0.0034979732706273
20.8873233795166,0.0033496295410938
20.916054010391235,0.0041484015270099
20.94478487968445,0.004182154926457
20.97351574897766,0.0036592958352949
21.002246618270874,0.0029473359133385
21.030977487564087,0.0024691862403657
21.0597083568573,0.0029163871744708
21.088439226150513,0.0035728238631015
21.117170095443726,0.0039625375074006
21.14590096473694,0.0041700999875585
21.174631595611572,0.0036862913600664
21.203362464904785,0.0035860251846055
21.232093334197998,0.0028591482930347
21.26082420349121,0.0030225987901217
21.289555072784424,0.0033221511176946
21.318285942077637,0.0033910131621827
21.34701681137085,0.0033643146070565
21.375747680664062,0.003371284682011
21.404478549957282,0.0025207348474014
21.43320918083191,0.0033863429997421
21.461940050125122,0.003198936495296
21.490670680999763,0.0040650389202211
21.519401788711548,0.0043155215080311
21.54813265800476,0.0039018195465721
21.576863527297974,0.0034798352874865
21.605594396591187,0.0027102533504273
21.6343252658844,0.0028558816346155
21.663056135177612,0.0033064265203526
21.691787004470825,0.0032647847254342
21.72051763534546,0.0038642548037912
21.749248504638672,0.004002813556958
21.777979373931885,0.0038258862043256
21.806710481643677,0.003594407237539
21.83544111251831,0.0036080967249757
21.864171981811516,0.0035296876614506
21.892902851104736,0.0038794789266376
21.92163348197937,0.0041447079505182
21.950364589691162,0.0034091065440334
21.97909522056579,0.0038123218018292
22.00782608985901,0.0030726198418706
22.03655695915222,0.0032402121752963
22.065287828445435,0.0031030080425914
22.094018697738647,0.0037726066636006
22.12274956703186,0.0037422623986174
22.151480436325073,0.0037450225591191
22.180211067199707,0.0034827979345972
22.2089421749115,0.0027266241323965
22.237672805786133,0.0030077254434158
22.266403675079346,0.0033979256011638
22.29513454437256,0.0040242313379878
22.32386541366577,0.0041499335228107
22.352596282958984,0.0037076170954986
22.381327152252197,0.0031437137078689
22.41005802154541,0.002664832666294
22.438788890838623,0.0036502134835859
22.467519760131843,0.0036484708822226
22.49625039100647,0.0039675438592384
22.524981260299683,0.0028620296367584
22.553711891174316,0.0048292421871631
22.58244299888611,0.0089824313740135
22.61117386817932,0.0118418573112817
22.639904737472534,0.0155406044757697
22.668635606765747,0.0154598495377979
22.69736647605896,0.0160313107758491
22.726097345352173,0.0166353457656978
22.754827976226807,0.0155804118634096
22.78355884552002,0.0179310621363892
22.812289476394653,0.0185113028284681
22.841020584106445,0.0205074282647711
22.869751691818237,0.0210582873361798
22.89848232269287,0.0199982857704118
22.927213191986077,0.0203123391730098
22.955944061279297,0.0207080323163482
22.98467469215393,0.0198384850133961
23.013405799865723,0.0212415247747785
23.042136430740356,0.0177333368141951
23.07086730003357,0.0192548867792156
23.099598169326782,0.0157215958964348
23.128329277038574,0.0120009869831763
23.157059907913208,0.0084442324357394
23.18579077720642,0.0016667178924474
23.214521646499634,0.0026892619257155
23.243252515792847,0.001943303585958
23.27198338508606,0.0025512564217146
23.300714015960693,0.002151118053365
23.329444885253906,0.0044075404263211
23.35817575454712,0.0040890638122376
23.386906623840332,0.0045562688905308
23.415637493133545,0.0033641711957964
23.444368362426758,0.0026948554442175
23.47309923171997,0.0026912747868638
23.501830101013184,0.0031689369552429
23.530560970306396,0.0031669619327013
23.55929160118103,0.0032643018234924
23.588022470474243,0.0031257651946615
23.616753339767456,0.0033952856428126
23.64548420906067,0.0035006557610881
23.674215078353882,0.0035132973874321
23.702945947647095,0.0035867850492091
23.731676816940308,0.0032271202353683
23.76040768623352,0.0029521407721303
23.789138555526733,0.0032003849644826
23.817869186401367,0.0031018975792728
23.84660005569458,0.0031416965926844
23.875330686569214,0.0029575991341204
23.904061794281006,0.0024897747363506
23.93279266357422,0.0023093163455728
23.96152353286743,0.0028470394912536
23.990254402160645,0.0030561887203154
24.018985271453857,0.0033249830201837
24.04771614074707,0.0034563198951088
24.076446771621704,0.0034315390203666
24.105177640914917,0.0033405921474615
24.13390851020813,0.0038075470096822
24.162639379501343,0.0034848174211062
24.191370487213135,0.0036467356794536
24.22010111808777,0.0031323376582942
24.24883198738098,0.0030557166491489
24.277562856674194,0.0026545766773864
24.306293487548828,0.0033422789691445
24.33502459526062,0.0029667358087088
24.363755226135254,0.0034161080570062
24.392486095428467,0.0035706188548255
24.42121696472168,0.0034903460506647
24.44994807243347,0.0035432097123823
24.478678703308105,0.002931286024459
24.50740957260132,0.0025246760196581
24.53614044189453,0.0025626925524267
24.564871072769165,0.0024615861346469
24.593602180480957,0.0034255669327268
24.62233281135559,0.0030687625998932
24.651063680648797,0.0035312190364537
24.679794549942017,0.0034364955456233
24.70852541923523,0.0033508425427475
24.737256288528442,0.00324627680763
24.765987157821655,0.0031602408007744
24.794718027114868,0.0029229892945878
24.82344889640808,0.0037099946250946
24.852179765701294,0.0037998071307089
24.880910396575928,0.0036831244347077
24.90964126586914,0.0035664936107829
24.938372135162354,0.0044481289413975
24.967103004455566,0.0043584572303915
24.99583387374878,0.004672341161128
25.024564743041992,0.0039448466629683
25.053295612335205,0.0032981422266181
25.082026481628418,0.0032700886189447
25.11075735092163,0.0026847989519336
25.139487981796265,0.0024231623756128
25.168218851089478,0.0020768667138029
25.19694948196411,0.0028486593130856
25.225680589675903,0.0032810276533786
25.254411697387695,0.0037450426046052
25.28314232826233,0.0038302253864491
25.311873197555542,0.0032925180871118
25.340604066848755,0.0036904329532738
25.369334936141968,0.0032874325266739
25.39806580543518,0.003443797154672
25.426796436309814,0.0031720699200021
25.45552706718445,0.0027830501093848
25.48425817489624,0.0030131652364643
25.512989282608032,0.0027934753848295
25.541719913482666,0.0025471071544242
25.57045078277588,0.0024753313134709
25.599181652069092,0.0025732502938321
25.627912521362305,0.0028398207726508
25.656643390655518,0.003163870436628
25.68537402153015,0.0036041289085284
25.714104890823357,0.0038119295849219
25.742835760116577,0.003991987660276
25.77156662940979,0.0032868937246389
25.800297498703003,0.0027207191134933
25.829028367996216,0.001839410666666
25.85775923728943,0.0021044553921894
25.886489868164062,0.0020103326975057
25.915220975875854,0.0022490758393077
25.94395160675049,0.0030601272802975
25.9726824760437,0.0033982352820942
26.001413345336914,0.0040326328964871
26.030144214630127,0.0038263994219775
26.05887508392334,0.00326767511894
26.087605953216553,0.0027004089789739
26.116336822509766,0.0019108975039013
26.14506769180298,0.0024781767590856
26.17379856109619,0.0020454170260822
26.202529191970825,0.0024285786774366
26.231260061264038,0.0031604403226718
26.259990692138672,0.0034984093474426
26.288721799850464,0.0034972974517598
26.317452669143677,0.0029217132650799
26.34618353843689,0.0017981261490922
26.374914407730103,0.0025467304414548
26.40364527702331,0.0022392043209291
26.43237614631653,0.0028371881170548
26.461106777191162,0.0023840484489235
26.489837646484375,0.0032724577205111
26.518568515777588,0.0031871458154357
26.5472993850708,0.0034488672916152
26.576030492782593,0.0027256929710059
26.604761123657227,0.0022283601858648
26.63349199295044,0.0020906014389083
26.662222862243652,0.0078570892634799
26.690953493118286,0.0127584066886319
26.719684600830078,0.0138300387570169
26.748415231704712,0.0164332355166389
26.777146100997925,0.0159217206107861
26.805876970291138,0.0157145980745984
26.83460807800293,0.0157864542568492
26.86333870887757,0.0165926402526774
26.892069578170776,0.0178583065381842
26.92080044746399,0.0226970092619087
26.949531078338623,0.0221437323834782
26.978262186050415,0.0231040447896998
27.00699281692505,0.0211129828504692
27.03572368621826,0.0195188267169152
27.064454555511475,0.0190214011629398
27.093185424804688,0.0151238928320643
27.1219162940979,0.0163762572365637
27.150647163391113,0.0150820891867323
27.179378032684326,0.016198775787068
27.20810890197754,0.0135381940412246
27.236839771270752,0.0098649232560446
27.265570402145386,0.0045305170489653
27.2943012714386,0.0036877120848727
27.32303214073181,0.0023530658113164
27.351763010025024,0.0026389962863986
27.380493879318237,0.0026291663091274
27.40922474861145,0.0025530768803998
27.437955617904663,0.0027663953921606
27.46668648719787,0.0033929012928951
27.49541735649109,0.0034654305328934
27.524147987365723,0.0041355297728141
27.552878856658936,0.0043804377985055
27.58160948753357,0.0041211937410148
27.61034059524536,0.0046074954540425
27.639071464538574,0.0035831827088351
27.667802333831787,0.0033291033008099
27.696533203125,0.0026415447030557
27.725264072418213,0.0017265751537087
27.753994941711426,0.0018844582508331
27.78272557258606,0.0015031256084839
27.811456441879272,0.0020023059344293
27.840187072753906,0.0019822298533031
27.8689181804657,0.0024811555423745
27.89764928817749,0.0026423036511982
27.92637991905213,0.0029526715743436
27.955110788345337,0.0028243374700347
27.98384165763855,0.0026768296927727
28.012572526931763,0.0022756584317382
28.041303396224976,0.0023243245983042
28.07003402709961,0.0020417221395262
28.098764896392822,0.0021813565732732
28.127495765686035,0.0016299103625749
28.156226634979248,0.0018539518860405
28.18495750427246,0.0020197951680476
28.213688373565674,0.0021096046670911
28.242419242858887,0.002950690853155
28.27114987373352,0.007065647751259
28.299880981445312,0.0070966762357598
28.328611612319946,0.007625758767103
28.35734248161316,0.005860839172941
28.386073350906372,0.0056872005872432
28.414804220199585,0.0061101862723538
28.443535089492798,0.0059514071112147
28.47226595878601,0.0040326716374941
28.500996828079224,0.0027272767652034
28.529727697372437,0.0030760821931839
28.55845856666565,0.0032570124850192
28.587189197540283,0.0032705282511848
28.615920066833496,0.003000210246357
28.64465093612671,0.0038404552070929
28.673381805419922,0.0053686323031336
28.702112674713135,0.0067605944717623
28.730843544006348,0.0062180413718837
28.75957441329956,0.006468367876286
28.788305282592773,0.0054738349522764
28.817036151885986,0.0053091731281953
28.84576678276062,0.0051901247662942
28.874497652053833,0.0030956549609555
28.903228521347046,0.0026640257429958
28.93195939064026,0.0028506489385952
28.96069049835205,0.0029061504525965
28.989421129226685,0.0027363655734832
29.018151998519897,0.0024174472569499
29.04688286781311,0.0021914663100874
29.075613737106323,0.002397236935788
29.104344606399536,0.0022265979107023
29.13307523727417,0.0024305407682951
29.161805868148797,0.0022622121715652
29.19053697586059,0.0026555497486368
29.219268083572388,0.0028344336068653
29.24799871444702,0.0033366039122347
29.276729583740234,0.0030694868885742
29.305460453033447,0.0030497509424085
29.33419108390808,0.0021690136340554
29.362922191619873,0.0020630936626501
29.391652822494507,0.0017429659418097
29.42038369178772,0.002987279019322
29.449114561080933,0.0034850247792882
29.477845430374146,0.003706524640214
29.50657629966736,0.0033839830988663
29.53530716896057,0.0024358109005848
29.564038038253784,0.0026177958054479
29.592768669128418,0.0025052945342185
29.62149977684021,0.002657585706063
29.65023040771485,0.0025904341118572
29.678961277008057,0.0027044756168945
29.70769214630127,0.0028111480023532
29.736423015594482,0.0026849594401075
29.765153884887695,0.003109348535638
29.793884754180908,0.0029867961662614
29.82261562347412,0.0033364716711048
29.851346492767334,0.0030700799485609
29.880077362060547,0.0031864997509372
29.90880799293518,0.0029211692627008
29.937538862228394,0.0028509872230351
29.966269493103027,0.0023838330649264
29.99500060081482,0.0024654934357058
30.023731470108032,0.0026152615085127
30.052462339401245,0.0026688030780043
30.081193208694458,0.0025884984064365
30.10992407798767,0.0035128059187146
30.138654947280877,0.0033174918464157
30.167385578155518,0.0037299781953192
30.19611644744873,0.0028727207782715
30.224847078323357,0.0027217262328408
30.25357818603515,0.0027234385822171
30.28230929374695,0.0027063692611752
30.311039924621582,0.0025823952997505
30.339770793914795,0.002290407894299
30.368501663208008,0.0024554449306983
30.39723253250122,0.0037503352145803
30.425963401794434,0.0054919182035363
30.454694032669067,0.0058487221592908
30.48342490196228,0.0054680851246019
30.512155771255493,0.0041802742728871
30.540886640548706,0.0024785706638328
30.56961750984192,0.0027992520821696
30.598348379135132,0.0023786452891364
30.627079248428345,0.0036143016371186
30.65580987930298,0.0056524978845692
30.68454098701477,0.0111828064582089
30.713271617889404,0.0129351933603474
30.742002487182617,0.0137021311586691
30.77073335647583,0.0120025473487517
30.799464225769043,0.0102418479854864
30.828195095062256,0.0106004044577649
30.85692596435547,0.0124532860608094
30.88565683364868,0.0166491495918354
30.91438746452331,0.0185366349810179
30.943118572235107,0.019945752070007
30.97184920310974,0.0205311288421528
31.000580072402954,0.0205886536673161
31.029310941696167,0.0234676886707998
31.05804181098938,0.0204474368532303
31.086772680282593,0.0218422019154669
31.115503549575806,0.0178045540055545
31.14423441886902,0.0206215695326931
31.17296528816223,0.0198579688634769
31.201696157455437,0.0159165601699404
31.230426788330078,0.01270329765644
31.25915765762329,0.003425613514621
31.287888526916504,0.0043057038748338
31.316619396209717,0.0027667796064148
31.34535026550293,0.0027463005820819
31.374081134796143,0.0027180717942252
31.402812004089363,0.0026207124699616
31.43154287338257,0.0035981459208218
31.46027374267578,0.0042137959399255
31.489004373550415,0.0039421616253325
31.517735242843628,0.0037586741341442
31.54646587371826,0.0017397633965967
31.575196981430054,0.0027368852562941
31.603928089141846,0.0025822314157567
31.63265872001648,0.0029100324585065
31.661389589309692,0.0025560762255502
31.690120458602905,0.002465276907597
31.71885108947754,0.0023967494556058
31.74758219718933,0.0025026291689641
31.776312828063965,0.0022454447671249
31.805043697357178,0.0022863811617744
31.83377456665039,0.0020887486049004
31.862505674362183,0.0021661192954184
31.891236305236816,0.0020604922122792
31.91996717453003,0.0021438207321387
31.948698043823242,0.00205080640549
31.97742867469787,0.0021604526856463
32.00615978240967,0.0035429411560066
32.0348904132843,0.0039395117389254
32.063621282577515,0.0039510160882357
32.09235215187073,0.0036022538338466
32.12108302116394,0.0023817280371427
32.14981389045715,0.0024989485180143
32.178544759750366,0.0019516482056311
32.20727562904358,0.0020663271798689
32.23600649833679,0.0022218161581374
32.264737367630005,0.0024391569545712
32.29346799850464,0.0025374825850035
32.32219886779785,0.0025229475074779
32.350929737091064,0.0023410941863244
32.37966060638428,0.002227062305707
32.40839147567749,0.001978763544421
32.4371223449707,0.0020399034060256
32.46585321426392,0.0020083559899321
32.49458408355713,0.0019661551423764
32.52331495285034,0.0019528391419167
32.552045583724976,0.0018827083480971
32.58077645301819,0.0018363891318991
32.60950708389282,0.0020878277163015
32.638238191604614,0.0026700590402033
32.666969299316406,0.0037918440367108
32.69569993019104,0.0037334657575766
32.72443079948425,0.0037752348072355
32.753161668777466,0.0026913751894147
32.78189253807068,0.0023486349334957
32.81062316894531,0.0023686944464255
32.839354038238525,0.0021062378041502
32.86808466911316,0.0023420409291567
32.89681577682495,0.002084323864493
32.92554664611816,0.0026421208051735
32.95427751541138,0.0032994540100158
32.98300838470459,0.0030500804142926
33.0117392539978,0.0030794423824052
33.04046988487244,0.0026140603033199
33.06920099258423,0.0034622523219384
33.09793162345886,0.0033737477963346
33.126662492752075,0.0034943761844417
33.15539336204529,0.0026387265757313
33.1841242313385,0.0026502921743756
33.212855100631714,0.0028219621577277
33.24158596992493,0.0028967303374354
33.27031683921814,0.0027033143257343
33.29904747009277,0.0026364959712174
33.327778577804565,0.0025131991798272
33.3565092086792,0.0027150400752072
33.38524007797241,0.00261685070291
33.413970947265625,0.0024707092708405
33.44270181655884,0.0026428938741427
33.47143268585205,0.0023448543585039
33.500163555145264,0.0025588040964334
33.52889442443848,0.0025650191691386
33.55762529373169,0.0024016690065501
33.5863561630249,0.0025698522968932
33.615086793899536,0.0023107935961643
33.64381766319275,0.0022487236484859
33.67254853248596,0.002292162758563
33.701279401779175,0.0021946703343487
33.73001027107239,0.002220473241951
33.7587411403656,0.0020949187477459
33.78747200965881,0.0020936269303049
33.816202878952026,0.0020293078272856
33.84493374824524,0.0019926535569999
33.87366437911987,0.0018481412937239
33.902395248413086,0.0019876608379339
33.93112587928772,0.0024398328433281
33.95985698699951,0.0025746544120109
33.988588094711304,0.0027290232201808
34.01731872558594,0.0025751233519128
34.04604959487915,0.0022367126901656
34.07478046417236,0.0020633855088671
34.103511095047,0.0016274852682751
34.13224220275879,0.0015668792649917
34.16097283363342,0.0016946418286856
34.18970346450806,0.0022475889374981
34.21843457221985,0.0022392506791784
34.24716567993164,0.0022514805462003
34.275896310806274,0.0019945158953868
34.30462718009949,0.001650668847167
34.3333580493927,0.0016276086210363
34.362088680267334,0.0017456147805128
34.390819787979126,0.0017718989338792
34.41955041885376,0.0020085212460586
34.44828128814697,0.0019067091511906
34.477012157440186,0.0020262740673477
34.5057430267334,0.0021084097391689
34.53447389602661,0.0022797955865836
34.563204765319824,0.0021172692606365
34.59193563461304,0.0032534510818399
34.62066650390625,0.008062566490605
34.64939737319946,0.0121945423969625
34.6781280040741,0.013064137094027
34.70685887336731,0.0137074178183628
34.73558974266052,0.0123788488717441
34.764320611953735,0.0115812283925678
34.79305148124695,0.0113403138644836
34.82178235054016,0.0121987108377265
34.850513219833374,0.014109450525337
34.87924408912659,0.0175026504379816
34.9079749584198,0.0195328939661501
34.936705589294434,0.0207415645195051
34.96543645858765,0.0202998047996415
34.99416708946228,0.020201162773708
35.02289819717407,0.020058562481689
35.051629066467285,0.0205246612908057
35.0803599357605,0.0190125472521979
35.10909080505371,0.0184521573009106
35.13782167434693,0.0163069780723091
35.16655254364014,0.0138352207335326
35.19528317451477,0.0115249599453003
35.22401404380798,0.0046671818330399
35.25274467468262,0.0028419035997849
35.28147578239441,0.0039563713874317
35.31020665168762,0.0050918879227646
35.338937520980835,0.0049784690908152
35.36766839027405,0.0052127755032015
35.39639925956726,0.0056150391355826
35.425129890441895,0.0056816417494343
35.45386099815369,0.0120985657361372
35.48259162902832,0.0135218316145855
35.51132249832153,0.0151432106433085
35.540053367614746,0.0135990306291384
35.56878447532654,0.0094326266746805
35.59751510620117,0.0081678366086538
35.626245975494385,0.0056882538521406
35.6549768447876,0.0071875802541026
35.68370747566223,0.005668659898347
35.71243858337402,0.0064764308791892
35.74116921424866,0.0032085057168139
35.76990008354187,0.0053245823749625
35.79863095283508,0.0064660854601652
35.827361822128296,0.0065066552634169
35.85609269142151,0.0058429949060863
35.88482356071472,0.005149923311625
35.913554430007935,0.0056677528845748
35.94228529930115,0.00834461695349
35.97101616859436,0.0084481907245111
35.999746799468994,0.0077682279601137
36.02847766876221,0.0063468213707615
36.05720853805542,0.0032456521722513
36.08593940734863,0.0033455066568251
36.114670276641846,0.0025555444323034
36.14340114593506,0.0029560384802057
36.17213201522827,0.0037271371710423
36.200862884521484,0.0045783255169789
36.2295937538147,0.0054865916051056
36.25832438468933,0.0052012884865803
36.287055253982544,0.0051143283832871
36.31578588485718,0.0038598258439599
36.34451699256897,0.0040483537141803
36.37324810028076,0.0038893773602725
36.40197873115539,0.0040425243670211
36.43070960044861,0.0037323998773897
36.45944046974182,0.0056246314434171
36.488171339035034,0.007477628558869
36.51690196990967,0.007712299524572
36.54563283920288,0.0072964034698352
36.574363470077515,0.0065706139412938
36.60309457778931,0.0069870106972124
36.6318256855011,0.0070542536220721
36.66055631637573,0.0066076989364876
36.689287185668945,0.0046204256000503
36.71801805496216,0.0055037638177567
36.74674868583679,0.0064035792771946
36.775479793548584,0.0075853188506395
36.80421042442322,0.0073185760735045
36.83294129371643,0.0073029270035712
36.86167216300965,0.0081323813506324
36.890403032302856,0.0073511036992113
36.91913390159607,0.0069617333902269
36.94786477088928,0.0047557819891428
36.976595640182495,0.0062734032841339
37.00532650947571,0.0074610340118032
37.03405737876892,0.0080509580868063
37.062788009643555,0.0069273109377921
37.09151887893677,0.0055336696637047
37.12024974822998,0.0050897101493015
37.14898061752319,0.0059745562425217
37.177711486816406,0.0055122843773951
37.20644235610962,0.0054033922037298
37.23517322540283,0.0049778252219159
37.263904094696045,0.0064966570289776
37.29263496398926,0.006345648948329
37.32136559486389,0.0062258993364409
37.350096464157104,0.0050630639285849
37.37882709503174,0.0057697712450397
37.40755820274353,0.0059604798394823
37.43628907203674,0.0061792221104673
37.46501994132995,0.0045427014407703
37.49375081062317,0.0042906076550482
37.52248167991638,0.0045587048377365
37.551212549209595,0.0041193603685739
37.57994318008423,0.0034976291061382
37.60867404937744,0.0031011493400978
37.637404680252075,0.0037083556571085
37.66613578796387,0.003972345629657
37.69486665725708,0.0040541804983889
37.72359752655029,0.003317943294628
37.752328395843506,0.0038555184088101
37.78105926513672,0.0037478048001027
37.80979013442993,0.0042184967546779
37.838521003723145,0.0035161644172134
37.86725163459778,0.0038679796556165
37.89598250389099,0.0035061212013012
37.92471337318421,0.0037398548249879
37.953444480896,0.0036976809832307
37.98217511177063,0.0030716024275344
38.01090598106384,0.0035476466786387
38.039636850357056,0.0029760485992733
38.06836748123169,0.0032142647018785
38.09709858894348,0.0033281950164151
38.125829219818115,0.0032686747510805
38.15456008911133,0.00372743649824
38.18329095840454,0.0033942686264543
38.212021827697754,0.003823708505566
38.24075269699097,0.0031396052798735
38.26948356628418,0.0033930248753703
38.29821443557739,0.0030043419761778
38.326945066452026,0.0027182213117571
38.35567617416382,0.0027616176478536
38.38440680503845,0.0024490206661268
38.413137674331665,0.0027225753323191
38.44186854362488,0.0025686794335717
38.47059941291809,0.0028321485892454
38.499330282211304,0.0033873054554244
38.52806115150452,0.0034045811242553
38.55679202079773,0.0039096348008946
38.58552289009094,0.0034058994034641
38.614253759384155,0.0049800997326613
38.64298439025879,0.0089560965444248
38.671715259552,0.0123013667800614
38.70044589042664,0.0131767663782906
38.72917699813843,0.0128762027574126
38.75790786743164,0.0129097082950383
38.78663873672485,0.0134060105589109
38.815369606018066,0.0151340077782665
38.84410047531128,0.0145365688529316
38.87283134460449,0.0147878180064087
38.901561975479126,0.0184898850486862
38.93029284477234,0.023194261272825
38.95902347564697,0.0264707096379995
38.987754583358765,0.0258519194489285
39.01648569107056,0.02409723215634
39.04521632194519,0.0209737425574487
39.0739471912384,0.0201174377259219
39.102678060531616,0.0205011698763772
39.13140869140625,0.0197604732054574
39.16013979911804,0.0180648559164476
39.18887042999267,0.0184243076704776
39.21760129928589,0.017041162804555
39.2463321685791,0.0144624385545709
39.275063276290894,0.0149687073153329
39.30379390716553,0.010965039082761
39.33252477645874,0.0115298055334275
39.36125564575195,0.0102372992561135
39.389986515045166,0.0114064155681683
39.41871738433838,0.0130938584247412
39.44744801521301,0.0128832025989668
39.476178884506226,0.0119376818146696
39.50490975379944,0.0109209681034406
39.53364062309265,0.0176512129377339
39.562371492385864,0.0196322647361184
39.59110236167908,0.0189275391085701
39.61983323097229,0.0145930686052548
39.6485641002655,0.0065718149161289
39.67729496955872,0.0043542312082885
39.70602560043335,0.0051565377761489
39.73475646972656,0.0048239385011415
39.763487339019775,0.0050306752131646
39.79221820831299,0.0026789272513363
39.8209490776062,0.0031650660546425
39.849679946899414,0.002968334250598
39.87841081619263,0.0037921436224535
39.90714168548584,0.0041438651005861
39.93587255477905,0.0043413664884881
39.96460318565369,0.0041879900173169
39.9933340549469,0.0033198164895319
40.02206468582153,0.0032506760282461
40.050795793533325,0.0029285408362661
40.07952666282654,0.0030161710270656
40.10825753211975,0.00274312601678
40.13698840141296,0.00271132508052
40.16571927070618,0.00269812220304
40.19445013999939,0.0027320540202745
40.22318077087402,0.0028129296502354
40.251911640167236,0.0032773295009634
40.28064250946045,0.0035310672895704
40.30937337875366,0.003141693562704
40.338104486465454,0.0032774318061535
40.36683511734009,0.0033643549958661
40.3955659866333,0.0033570379473017
40.424296855926514,0.003809776437496
40.45302748680115,0.0031426060063687
40.48175859451294,0.003474350707587
40.51048922538757,0.003458615633231
40.539220094680786,0.0036028309519021
40.567950963974,0.0035181668110222
40.59668183326721,0.0030389522556069
40.625412702560425,0.0031678497387919
40.65414357185364,0.0028119734591201
40.68287444114685,0.0037204588853336
40.711605072021484,0.003249514077852
40.740336179733276,0.0034529386348375
40.76906681060791,0.0034075947603227
40.79779767990112,0.002998917234351
40.826528549194336,0.0034526022465095
40.85525941848755,0.0034192726157412
40.88399028778076,0.0035328962197816
40.912721157073975,0.0042323294421104
40.94145202636719,0.0033860913399734
40.9701828956604,0.0037036965886829
40.99891376495361,0.0032745710866227
41.02764439582825,0.0035695941322928
41.05637526512146,0.003617071894107
41.08510613441467,0.0033730002811739
41.113837003707886,0.0037323657384428
41.1425678730011,0.0037870820023701
41.17129874229431,0.0040981512301939
41.200029611587524,0.003810906480692
41.22876048088074,0.0033864194484671
41.25749135017395,0.0035417943828675
41.286221981048584,0.003655595990149
41.3149528503418,0.0038632786477516
41.34368348121643,0.0034837794330663
41.37241458892822,0.0036005796504056
41.401145696640015,0.0040071287232228
41.42987632751465,0.0043209137547215
41.45860719680786,0.0041446881307067
41.487338066101074,0.0038454090274665
41.51606893539429,0.0032915174612075
41.5447998046875,0.0039012395658188
41.573530435562134,0.0040262706748731
41.60226106643677,0.0045897198014283
41.63099217414856,0.004180398546796
41.65972328186035,0.0043659013142569
41.688453912734985,0.0034975470746982
41.7171847820282,0.0037424692647834
41.74591565132141,0.003151171162588
41.774646520614624,0.0029606156028796
41.80337738990784,0.0034816493698265
41.83210802078247,0.0043390626125377
41.86083889007568,0.0042399892826392
41.8895697593689,0.0044535816169125
41.91830062866211,0.0035994050489307
41.94703149795532,0.0031506984253417
41.975762367248535,0.0034748738350045
42.00449323654175,0.003208686053585
42.03322386741638,0.003232739692698
42.061954975128174,0.0034724279424786
42.09068560600281,0.0033220613716576
42.11941647529602,0.0029172965981226
42.14814734458923,0.0033561277997361
42.176878213882446,0.0031694263380163
42.20560908317566,0.0031740413966849
42.23433995246887,0.0037809158076362
42.263070821762085,0.0029936218602687
42.2918016910553,0.0034912620778889
42.32053256034851,0.0031760683845761
42.349263191223145,0.0030788368160021
42.37799406051636,0.0030550641093224
42.40672469139099,0.0027839633500251
42.43545579910278,0.003052013453042
42.464186668396,0.0039334910405862
42.49291753768921,0.0036337867451403
42.52164840698242,0.0039287626152185
42.550379276275635,0.0033598733341474
42.57911014556885,0.0031548689553329
42.60784077644348,0.0034366562645469
42.636571645736694,0.0028752748040647
42.66530251502991,0.0049719880831291
42.69403338432312,0.0091128416134392
42.72276449203491,0.0096471030532911
42.751495122909546,0.0104257756882538
42.78022599220276,0.0113344955307117
42.80895686149597,0.0111996017717068
42.837687492370605,0.0125398424880938
42.8664186000824,0.0151497658643246
42.89514923095703,0.0146463305761815
42.92388010025024,0.0177067678083721
42.95261096954346,0.0170751643811983
42.98134207725525,0.0189092198219017
43.01007270812988,0.0220027797035572
43.038803577423096,0.0206430839029676
43.06753444671631,0.0216756132437891
43.09626507759094,0.0181681397637136
43.124996185302734,0.0169963785154642
43.15372681617737,0.0187206920703868
43.18245768547058,0.0185999606562756
43.211188554763794,0.017296903635789
43.23991942405701,0.0144710236229182
43.26865029335022,0.0071660846342157
43.29738116264343,0.004430098401205
43.326112031936646,0.0042059706213755
43.35484290122986,0.005305393813304
43.38357377052307,0.0053088448811404
43.412304401397705,0.0050075483900985
43.44103527069092,0.0047807476215001
43.46976613998413,0.0060466040717045
43.498497009277344,0.0059587053061956
43.52722787857056,0.005966584883294
43.55595874786377,0.0046337045137782
43.58468961715698,0.004166685497435
43.613420486450195,0.0048511122259993
43.64215135574341,0.0039710263338492
43.67088198661804,0.0044161069454935
43.699612855911255,0.0035667527922149
43.72834348678589,0.0035155321566972
43.75707459449768,0.0030108659181871
43.78580570220947,0.0029968211875735
43.814536333084106,0.0029047124462199
43.84326720237732,0.0036560777464455
43.87199807167053,0.0033920739596074
43.900728940963745,0.0036425661923764
43.92945957183838,0.0035941694290593
43.95819044113159,0.0030125683754569
43.986921072006226,0.003037795454043
44.01565217971802,0.0029082244287171
44.04438328742981,0.0032283411481582
44.07311391830444,0.0035100958937758
44.101844787597656,0.0037994541818392
44.13057565689087,0.0033922684094272
44.15930652618408,0.0030779484105242
44.188037395477295,0.0023915326177761
44.21676802635193,0.0028499610725669
44.24549889564514,0.0033841361158972
44.274229764938354,0.0034002201914368
44.30296063423157,0.0037787907661555
44.33169150352478,0.0028806838344835
44.36042237281799,0.0027353234326582
44.389153242111206,0.0024680206207714
44.41788387298584,0.0026271004412896
44.44661498069763,0.0025468195352218
44.475345611572266,0.0058530062507982
44.50407648086548,0.0104267150757127
44.53280735015869,0.0095551110838363
44.561538219451904,0.0101835630853429
44.59026908874512,0.0051583292803458
44.61899995803833,0.004340355054001
44.64773082733154,0.0041792832854955
44.676461696624756,0.0038080158045461
44.70519256591797,0.0034326497838344
44.7339231967926,0.0032486859520584
44.762654066085815,0.0037663831949019
44.79138493537903,0.0033633597508224
44.82011580467224,0.0036160329418514
44.848846673965454,0.003528863845741
44.87757754325867,0.0038296569732675
44.90630841255188,0.0035572927177101
44.93503928184509,0.0034746014844647
44.963770151138306,0.0034937334396162
44.99250078201294,0.003626677802935
45.02123165130615,0.0039755156536882
45.049962520599365,0.0036633508538024
45.07869338989258,0.0033103967583247
45.10742449760437,0.0030206899066144
45.136155128479004,0.0029442901922191
45.16488599777222,0.003275409475513
45.19361686706543,0.0040827026609254
45.22234773635864,0.0043130366721271
45.251078367233276,0.0046857620334267
45.27980923652649,0.0039759641289981
45.30853986740112,0.0033189145748226
45.337270975112915,0.0028096931779797
45.36600208282471,0.0032902871758453
45.39473271369934,0.0032047449768328
45.423463582992554,0.0037874147586421
45.45219445228577,0.0032657186982432
45.4809250831604,0.0033606056402486
45.50965619087219,0.0032327230419467
45.538386821746826,0.0034381672454784
45.56711769104004,0.003339118544053
45.59584856033325,0.0032270891183739
45.624579429626465,0.0027375639966058
45.65331029891968,0.0028820565121728
45.68204116821289,0.0030714298779943
45.7107720375061,0.0034783556802608
45.73950266838074,0.0036246836196769
45.76823377609253,0.0038809334185494
45.79696440696716,0.0033379263678436
45.825695276260376,0.0034981312435613
45.85442614555359,0.0033265044108764
45.8831570148468,0.0032960299964136
45.911887884140015,0.0033843277432542
45.94061875343323,0.0031471669591728
45.96934962272644,0.003343141390844
45.99808049201965,0.0038745773979168
46.026811361312866,0.0032723811560614
46.0555419921875,0.0030861319305176
46.08427286148071,0.0020774049647165
46.11300349235535,0.0024348213021254
46.14173460006714,0.0024286094205682
46.17046546936035,0.0026747643671965
46.199196338653564,0.002644587280494
46.22792720794678,0.0035190649242148
46.25665807723999,0.0034661020396118
46.2853889465332,0.0037521814634279
46.31411957740784,0.0034402671099711
46.34285044670105,0.0038224793063549
46.371581077575684,0.0044529274002646
46.400312185287476,0.0045193739295834
46.42904329299927,0.0039265886895485
46.4577739238739,0.0032384460478085
46.486504793167114,0.0026385277597612
46.51523566246033,0.0043088185890854
46.54396653175354,0.0047380764644047
46.57269740104675,0.0050441040520971
46.60142803192139,0.0044501258472786
46.6301589012146,0.003154433307441
46.65888977050781,0.0033680982647971
46.687620639801025,0.0039492430224267
46.71635150909424,0.0053938918796441
46.74508237838745,0.0073934835439297
46.773813247680664,0.0073279265713729
46.8025438785553,0.0085086148864196
46.83127498626709,0.0104980749997152
46.860005617141724,0.010785865415024
46.88873648643494,0.0125735561497652
46.91746735572815,0.0134244946013797
46.94619822502136,0.0144454749738315
46.974929094314575,0.0172584464314815
47.00365996360779,0.0177271310183147
47.032390832901,0.0199711235244449
47.061121702194214,0.0201893512159592
47.08985257148743,0.0203013080122704
47.11858320236206,0.0190810322828537
47.14731407165527,0.0199865399772065
47.176044940948486,0.0195447219883457
47.2047758102417,0.0201868567305984
47.23350667953491,0.0173710763274883
47.262237548828125,0.0158709603571101
47.29096841812134,0.0121783011978785
47.31969928741455,0.0104922347181767
47.348430156707764,0.0061507026536056
47.3771607875824,0.0053445701477148
47.40589165687561,0.0056123740590382
47.43462252616882,0.0059519737729778
47.463353395462036,0.0047569828789004
47.49208426475525,0.0039002759979161
47.52081513404846,0.0052900150390234
47.549546003341675,0.0051532949444512
47.57827687263489,0.0052293040155542
47.6070077419281,0.0050583448523794
47.635738372802734,0.0053242700606266
47.66446924209595,0.0052346114868076
47.69319987297058,0.0047327340041394
47.72193098068237,0.0037395297683248
47.750662088394165,0.0046704681677652
47.7793927192688,0.0047012487545956
47.80812358856201,0.0052295179669669
47.836854457855225,0.0042263326736438
47.86558508872986,0.0039762507680943
47.89431619644165,0.0044865667049627
47.923046827316284,0.0047184959192386
47.9517776966095,0.0059529351952338
47.98050856590271,0.0064696779638863
48.0092396736145,0.0052429782560142
48.037970304489136,0.0051681086977377
48.06670117378235,0.0038549584296502
48.09543204307556,0.0040566291081441
48.124162673950195,0.0039887131214865
48.15289378166199,0.0041035832013843
48.18162441253662,0.0042569644090254
48.210355281829834,0.0060467848485842
48.23908615112305,0.0056847055710387
48.26781702041626,0.0057486240009862
48.29654788970947,0.0039761513270299
48.325278759002686,0.0048279132072473
48.3540096282959,0.0057353082317411
48.38274049758911,0.0056303446665906
48.411471366882324,0.0050677426186379
48.44020199775696,0.0043234483525241
48.46893286705017,0.0058032278722482
48.497663736343384,0.0058176329935863
48.5263946056366,0.0058777709104633
48.55512547492981,0.0039869525017588
48.58385634422302,0.0034516521271122
48.612587213516235,0.0046273910567361
48.64131808280945,0.0046992419102261
48.67004895210266,0.0050635557252711
48.698779582977295,0.0043633426508303
48.72751045227051,0.003845960407143
48.75624108314514,0.003639992512162
48.784972190856934,0.0041329813265852
48.813703298568726,0.0035572372555538
48.84243392944336,0.0054330918245392
48.87116479873657,0.0060269062641969
48.899895668029785,0.0068351334292432
48.928626537323,0.0063933973672289
48.95735716819763,0.0051049836701134
48.986088037490845,0.0051231826252656
49.01481866836548,0.0053593195797805
49.04354977607727,0.0053134824636924
49.07228064537048,0.0049293019799088
49.101011514663696,0.0036248034922856
49.12974238395691,0.0047604595263622
49.15847325325012,0.006165940434309
49.187203884124756,0.0061425661044344
49.21593499183655,0.0055909361388452
49.24466562271118,0.0039329015811539
49.273396492004395,0.0038430138248821
49.30212736129761,0.0034730701609627
49.33085823059082,0.0038780394337209
49.35958909988403,0.0032075700969062
49.388319969177246,0.0048961393659969
49.41705083847046,0.0053130056548654
49.44578146934509,0.0050114490479591
49.474512577056885,0.0042290545882808
49.50324320793152,0.0036744565751179
49.53197407722473,0.0041818089461839
49.560704946517944,0.0042248323417168
49.58943581581116,0.0036728922493371
49.61816668510437,0.0026446983750916
49.64689755439758,0.0028648843943403
49.675628423690796,0.0038559594176111
49.70435929298401,0.0037743167198423
49.73309016227722,0.0039504203354199
49.761820793151855,0.0038509165947815
49.79055166244507,0.0044497577246218
49.81928253173828,0.0051064221080333
49.848013401031494,0.0048958239229344
49.87674427032471,0.0048409156878496
49.90547513961792,0.0038163107974629
49.93420600891113,0.004877135829486
49.962936878204346,0.006480152446347
49.99166774749756,0.0064488493500753
50.02039837837219,0.0065485352578254
50.049129247665405,0.006097623547992
50.07785987854004,0.0052197946854608
50.10659098625183,0.0056285463730333
50.13532209396362,0.00398613766767
50.16405272483826,0.0040474724007046
50.19278359413147,0.0061726784266104
50.22151446342468,0.0056411796854773
50.250245094299316,0.0062645574587088
50.27897620201111,0.0038886990485662
50.30770683288574,0.0042957758480194
50.336437702178955,0.0042372094357264
50.36516857147217,0.0040197044685292
50.39389967918396,0.0038409980806374
50.422630310058594,0.0032142357425449
50.45136117935181,0.0036774723032442
50.48009204864502,0.0034920954153518
50.50882267951965,0.0034002134578532
50.537553787231445,0.003027518502338
50.56628441810608,0.0048799932588081
50.59501528739929,0.0051825759389021
50.623746156692505,0.0051710034803294
50.65247702598572,0.0044714044021103
50.68120789527893,0.0032570338900677
50.709938764572144,0.0050172380511377
50.738669633865356,0.0051606148019021
50.76740050315857,0.0051280725010758
50.79613137245178,0.0040229686711127
50.824862003326416,0.0057198314434349
50.85359287261963,0.0101643004074002
50.88232374191284,0.0115812953223518
50.911054611206055,0.0117837901902926
50.93978548049927,0.0127338183945265
50.96851634979248,0.0118037481928668
50.99724721908569,0.0124072488024583
51.025978088378906,0.0112745762178539
51.05470895767212,0.0101153364380121
51.08343958854675,0.0147112506995668
51.112170457839966,0.0171676871534312
51.1409010887146,0.0197175659328937
51.16963219642639,0.0186782770681727
51.198363065719604,0.0182260759671185
51.22709393501282,0.0151912473573693
51.25582480430603,0.0176949730491254
51.28455567359924,0.017465832082721
51.313286542892456,0.0204516544262222
51.34201717376709,0.020810417038626
51.3707480430603,0.0202088366842872
51.39947867393494,0.0180815589898276
51.42820978164673,0.0135237568822023
51.45694065093994,0.0098427184632303
51.485671520233154,0.0041988350496231
51.51440238952637,0.0040267317624804
51.54313325881958,0.0046105009254608
51.571863889694214,0.0058741527987618
51.600594997406006,0.0061135231291073
51.62932562828064,0.0055866665450595
51.65805649757385,0.0046746738944037
51.686787366867065,0.004833156081192
51.71551847457886,0.0043402272269492
51.74424910545349,0.0041426450568588
51.772979974746704,0.0027360244914658
51.80171084403992,0.0022158425981086
51.83044147491455,0.0021954575004616
51.85917258262634,0.0029525469180874
51.88790321350098,0.0034024644311049
51.91663408279419,0.0034012961812029
51.9453649520874,0.003352246134964
51.974095821380615,0.0036569697447068
52.00282669067383,0.0040401928491424
52.03155755996704,0.0044098936940662
52.060288429260254,0.0044029081634789
52.08901929855347,0.003904748635697
52.11775016784668,0.003591577808841
52.14648079872131,0.0035365092884432
52.175211668014526,0.0027258108931345
52.20394253730774,0.0034868760556069
52.23267340660095,0.0035112737282618
52.261404275894165,0.0039516377948672
52.29013514518738,0.0040678901854151
52.31886601448059,0.0034581981648708
52.347596883773804,0.0033091820514931
52.37632775306702,0.0036271710544451
52.40505838394165,0.0033361061739581
52.43378925323486,0.0034755032131133
52.4625198841095,0.0032287867014394
52.49125099182129,0.0031996888957284
52.51998209953308,0.0040471304336035
52.548712730407715,0.0042973931050294
52.57744359970093,0.0041298596089468
52.60617446899414,0.0041894184910158
52.63490533828735,0.0035096521833627
52.66363596916199,0.00450973413241
52.6923668384552,0.0047045442314717
52.721097469329834,0.004769733987295
52.749828577041626,0.0043964320698688
52.77855968475342,0.0033988208254783
52.80729031562805,0.0031540492828897
52.836021184921265,0.0033403735031992
52.86475205421448,0.0031776815115446
52.89348268508911,0.003981940044139
52.9222137928009,0.0033488103146403
52.95094442367554,0.0045284879739257
52.97967529296875,0.0051113182500808
53.00840616226196,0.0051848960998226
53.037137031555176,0.0051095668827321
53.06586790084839,0.0036613249752156
53.0945987701416,0.0032635251209397
53.123329639434814,0.0027593524367958
53.15206050872803,0.0025434729725901
53.18079137802124,0.0027298432477725
53.209522008895874,0.0036019928135146
53.23825287818909,0.0035175026169685
53.2669837474823,0.0038359818374529
53.29571461677551,0.0035606878363966
53.324445486068726,0.003760479080013
53.35317635536194,0.0037598960743699
53.38190722465515,0.0035678788628102
53.410638093948364,0.0035416980021461
53.43936896324158,0.0037541169242516
53.46809959411621,0.0037474944844056
53.496830463409424,0.0034360066510939
53.52556109428406,0.0032791993859454
53.55429220199585,0.0029169849222661
53.58302307128906,0.003727481809064
53.611753940582275,0.0032360341156907
53.64048480987549,0.003618619993757
53.6692156791687,0.0032450098787591
53.697946548461914,0.0033012446810687
53.72667717933655,0.0036591873929111
53.75540804862976,0.0035142705810296
53.784138679504395,0.0041232759766937
53.81286978721619,0.0040022945314691
53.8416006565094,0.0037493021373324
53.87033152580261,0.0038139691412028
53.899062395095825,0.0032627254933212
53.92779326438904,0.0034901822283865
53.95652413368225,0.0031771016272916
53.985255002975464,0.0035156196242996
54.0139856338501,0.0034718306560946
54.04271650314331,0.003978411812626
54.07144737243652,0.0038177032867626
54.100178480148315,0.0033270861673857
54.12890911102295,0.0045399736142201
54.15763998031616,0.0045519877664686
54.186370849609375,0.0050391776295523
54.21510148048401,0.0040996841736818
54.2438325881958,0.0032058461836774
54.272563219070435,0.0035162081199702
54.30129408836365,0.0045157672151578
54.33002495765686,0.0049390397036634
54.35875582695007,0.0046359636760356
54.387486696243286,0.0044330464167697
54.4162175655365,0.0032999751082461
54.44494843482971,0.0040648194610795
54.473679065704346,0.0034914533195378
54.50241017341614,0.0036984237733482
54.53114080429077,0.0032847143656563
54.559871673583984,0.0036474489090325
54.5886025428772,0.0037341393754981
54.61733341217041,0.0035445484603282
54.64606428146362,0.0036888306515083
54.674795150756836,0.0028139194137482
54.70352602005005,0.0040343466459373
54.73225688934326,0.0047094560059248
54.760987758636475,0.0119534619991117
54.78971838951111,0.0154238317471998
54.81844925880432,0.0163640253468396
54.847179889678955,0.0152844883931446
54.87591099739075,0.0103745444610144
54.90464186668396,0.009348829802446
54.93337273597717,0.0075654499722491
54.962103605270386,0.0088248403247797
54.9908344745636,0.0110287181812211
55.01956534385681,0.0148137051672754
55.048295974731445,0.0149469252752415
55.07702684402466,0.0189860166756254
55.10575747489929,0.0184261818645388
55.134488582611084,0.0199718935450478
55.163219690322876,0.0203945227095487
55.19195032119751,0.018689993430228
55.22068119049072,0.0198567379589085
55.249412059783936,0.0181596984376434
55.27814269065857,0.015431117744696
55.30687379837036,0.0165685462036778
55.335604429244995,0.012894392246431
55.36433529853821,0.0132114773578494
55.39306616783142,0.0088629139202374
55.42179727554321,0.0033085586843405
55.45052790641785,0.0059388169311364
55.47925877571106,0.006080684963478
55.50798964500427,0.0063837663950642
55.536720514297485,0.0055591328765435
55.5654513835907,0.005843780974893
55.59418201446533,0.0067177665903668
55.622912883758545,0.0067632515327338
55.65164375305176,0.0060623736437362
55.68037462234497,0.0055810121920606
55.709105491638184,0.0056627110004586
55.7378363609314,0.0057115732687824
55.76656723022461,0.0047250236217618
55.79529809951782,0.0034642192166075
55.824028968811035,0.0037777290025849
55.85275959968567,0.0035359154952742
55.88149046897888,0.0045646981625936
55.910221338272095,0.0040427621973705
55.93895220756531,0.004334163531651
55.96768307685852,0.0035651121344059
55.99641394615173,0.0039903613390099
56.025144815444946,0.0043478769164766
56.05387568473816,0.0045279638031364
56.08260655403137,0.0044337917605797
56.111337184906006,0.0052858832314425
56.14006805419922,0.0054991945875631
56.16879868507385,0.0054705030860945
56.197529792785645,0.004506401577425
56.22626066207886,0.0036245331038604
56.25499153137207,0.0037745314645092
56.28372240066528,0.0037085524054969
56.312453269958496,0.0036763880614031
56.34118413925171,0.0031267913061039
56.36991477012634,0.0034990140555202
56.398645639419556,0.0032278240653995
56.42737650871277,0.0038837410836485
56.45610737800598,0.0037991942485697
56.48483848571777,0.0041804043424181
56.51356911659241,0.0038744227958569
56.54229998588562,0.0032600932165119
56.57103085517883,0.0033328834386019
56.59976148605347,0.002682227210724
56.62849259376526,0.0030588275728749
56.65722322463989,0.0028042769979092
56.685954093933105,0.0039266136534164
56.71468496322632,0.0035490492899928
56.74341583251953,0.0042913090709864
56.772146701812744,0.0035238114709889
56.80087757110596,0.004381851489
56.82960844039917,0.0046736876011911
56.858339071273804,0.0052158284824761
56.887070178985596,0.0046787605645157
56.91580080986023,0.0045527332677838
56.94453167915344,0.0044518680118613
56.973262548446655,0.0043930524334019
57.00199341773987,0.0048985639059994
57.03072428703308,0.0039982217344154
57.059455156326294,0.0040369524495502
57.08818602561951,0.0037513224435619
57.11691689491272,0.0040468404887711
57.14564776420593,0.0039144504180118
57.174378395080566,0.0038193109900615
57.20310926437378,0.0032442658300655
57.23184013366699,0.0031713951441503
57.260571002960205,0.0035682551890552
57.28930187225342,0.0034922483638012
57.31803274154663,0.0038133368861789
57.346763610839844,0.0036871362736245
57.37549448013306,0.0040448241441998
57.40422534942627,0.0038895745555592
57.4329559803009,0.0038302959938455
57.461686849594116,0.0033346428032433
57.49041748046875,0.0032298403434198
57.51914858818054,0.00378814069937
57.547879695892334,0.0038562978344667
57.57661032676697,0.004256395108471
57.60534119606018,0.0041346668835021
57.634072065353394,0.0041633673007299
57.662802934646606,0.0041614787403193
57.69153380393982,0.0039530743339548
57.72026443481445,0.003649627306607
57.74899506568909,0.0036417754401314
57.77772617340088,0.0036930229866789
57.80645728111267,0.0039920071003436
57.835187911987305,0.0043508862703329
57.86391878128052,0.0037702034227084
57.89264965057373,0.0040408431980218
57.92138051986694,0.0043309318476701
57.950111389160156,0.0046072826517148
57.97884202003479,0.0051165598826352
58.007572889328,0.0043749868172435
58.036303758621216,0.0044914224482206
58.06503462791443,0.0041890955033618
58.09376549720764,0.0046908920996235
58.122496366500854,0.0042943287969917
58.15122723579407,0.0043088311322183
58.1799578666687,0.0038267939272779
58.20868897438049,0.0042252031311129
58.23741960525513,0.004421191428696
58.26615047454834,0.0042649309622856
58.29488134384155,0.0037102611277329
58.323612213134766,0.0034043196240151
58.35234308242798,0.0033022770396423
58.38107395172119,0.0036077909084882
58.409804821014404,0.0031391972825732
58.43853569030762,0.0028847832222149
58.46726655960083,0.0036764933481488
58.495997190475464,0.0043561576398125
58.52472805976868,0.0045087724680331
58.55345869064331,0.0046459918318033
58.5821897983551,0.0041804040769077
58.610920667648315,0.003828480869748
58.63965153694153,0.0043306206359755
58.66838240623474,0.0035679864077361
58.697113275527954,0.0036816657420589
58.72584414482117,0.0031679842615013
58.7545747756958,0.0030671600900441
58.783305644989014,0.0031178060444206
58.81203651428223,0.0048496128236337
58.84076738357544,0.0105059151026607
58.86949849128723,0.0117737890350923
58.898229122161865,0.013025783403063
58.92695999145508,0.0129169604216907
58.95569086074829,0.0124613476056404
58.984421491622925,0.0124272504123925
59.01315259933472,0.0112374636414051
59.04188323020935,0.0093343736177943
59.07061409950256,0.0137122944719044
59.099344968795776,0.0170699865345908
59.12807607650757,0.0186600226063107
59.1568067073822,0.0187203204530972
59.185537576675415,0.0180990748105629
59.21426844596863,0.019243195885429
59.24299907684326,0.0190236886438998
59.271730184555054,0.0191707705432955
59.30046081542969,0.0175433561306457
59.3291916847229,0.0175332787828771
59.35792255401611,0.0159191726054038
59.386653423309326,0.0127289673039138
59.41538429260254,0.0090745584404106
59.44411516189575,0.0044362540767245
59.472846031188965,0.0037673054691245
59.50157690048218,0.0057109277973167
59.53030776977539,0.0059416354513448
59.559038400650024,0.0060077430281655
59.58776926994324,0.0041682698974042
59.61650013923645,0.0044283151313569
59.64523100852966,0.0069126614145255
59.673961877822876,0.006477942853017
59.70269274711609,0.0065320178223195
59.7314236164093,0.0041830129801328
59.760154485702515,0.0037465696553257
59.78888535499573,0.0037725942283477
59.81761598587036,0.0040627798978102
59.846346855163574,0.0047076623511288
59.87507748603821,0.0049743129057299
59.90380859375,0.0047997995916655
59.93253970146179,0.0043670090786934
59.961270332336426,0.0032270735131349
59.99000120162964,0.0035666025239737
60.01873207092285,0.0040451531598781
60.047462940216064,0.0038602471687033
60.0761935710907,0.0043487080861912
60.10492444038391,0.0041979711288455
60.133655071258545,0.0051453692334887
60.16238617897034,0.0054254785033192
60.19111728668213,0.0052608878670578
60.21984791755676,0.004865230104421
60.248578786849976,0.0039482449814612
60.27730965614319,0.0043710551702015
60.3060405254364,0.0047706884495676
60.334771394729614,0.0043294460521755
60.36350202560425,0.0043144892659238
60.39223289489746,0.003794812446503
60.420963764190674,0.0035866369623661
60.44969463348389,0.0037891477604078
60.4784255027771,0.0035332987892163
60.50715637207031,0.00476935043033
60.535887241363525,0.004617564331632
60.56461787223816,0.0048019342898139
60.59334897994995,0.0043181013741637
60.622079610824585,0.0036805161688391
60.6508104801178,0.003491839961825
60.67954134941101,0.0028757108594652
60.708272218704224,0.0030289747224689
60.73700308799744,0.003181710857503
60.76573395729065,0.003408721982518
60.79446482658386,0.0030960544841702
60.823195695877075,0.0032125409220143
60.85192656517029,0.0032720040006917
60.88065719604492,0.0037426172291752
60.909388065338135,0.0038964428009759
60.93811893463135,0.003686640224574
60.96684980392456,0.0041060102542854
60.99558067321777,0.0043908822123393
61.024311542510986,0.0050197996797746
61.0530424118042,0.005128175688181
61.08177328109741,0.0051753051470691
61.110504150390625,0.0047329479168599
61.13923478126526,0.0055560673201809
61.16796565055847,0.0052430107790636
61.196696519851685,0.0054494405611798
61.2254273891449,0.0045604001379357
61.25415849685669,0.0048065092630655
61.28288912773132,0.0038647995871862
61.311619997024536,0.0044246131532291
61.34035086631775,0.0036375181152598
61.36908173561096,0.003973857654333
61.397812366485596,0.0039261568768872
61.42654323577881,0.0042177037920819
61.45527386665344,0.0037616684102301
61.484004974365234,0.0039201902548978
61.512736082077026,0.0031606446699086
61.54146671295166,0.0037197613646481
61.57019758224487,0.0035742722221447
61.598928451538086,0.0045135831296342
61.62765908241272,0.004630287434573
61.65639019012451,0.0045086683110116
61.685120820999146,0.0040531856167454
61.71385169029236,0.0036679508712141
61.74258255958557,0.0040661031212147
61.771313428878784,0.0044842701569988
61.800044298172,0.0050447872372331
61.82877516746521,0.0048096403038314
61.85750603675842,0.0047870694374273
61.88623666763306,0.0045646499106742
61.91496777534485,0.0044491969147346
61.94369840621948,0.0037892152983719
61.972429275512695,0.004071252684805
62.00116014480591,0.0030867850932989
62.02989101409912,0.0051496247433238
62.058621883392334,0.0053329665311002
62.08735275268555,0.0050372364511631
62.11608362197876,0.0044915926251248
62.14481449127197,0.0027824585853464
62.173545360565186,0.0037659893864698
62.20227599143982,0.0035267984383227
62.23100686073303,0.0039816033161181
62.259737491607666,0.0032795057032878
62.28846859931946,0.0036976529977414
62.31719946861267,0.0034808820016339
62.345930337905884,0.0036940482973715
62.3746612071991,0.0037609840126344
62.40339207649231,0.0036246879730638
62.43212294578552,0.0032016112429811
62.460853576660156,0.0036560499067641
62.48958444595337,0.0037866643744833
62.518315076828,0.0045804518962847
62.547046184539795,0.0037726262706842
62.57577729225159,0.0038676511445323
62.60450792312622,0.003173451487752
62.633238792419434,0.0037031797754037
62.66196966171265,0.0035291017748834
62.69070053100586,0.0033647989483578
62.71943140029907,0.0031249106288703
62.748162031173706,0.0045884605242919
62.77689290046692,0.007316823345135
62.80562376976013,0.0091519872203048
62.834354639053345,0.0106711968278024
62.86308550834656,0.0114764034064488
62.89181637763977,0.011462155319308
62.92054724693298,0.0107508156441751
62.94927787780762,0.0105425894133013
62.97800898551941,0.0134427365432615
63.00673961639404,0.0143140603753938
63.035470485687256,0.0173820535505476
63.06420135498047,0.0180159782442048
63.09293222427368,0.0189445495231002
63.121663093566895,0.0204313386250126
63.15039396286011,0.020305207578806
63.17912483215332,0.0191238664443377
63.20785570144653,0.018685587676915
63.236586570739746,0.0168454594684102
63.26531720161438,0.0180419641701625
63.29404807090759,0.0205920851036186
63.322778940200806,0.0195266584984179
63.35150980949402,0.0181711215428391
63.38024067878723,0.0122316077415268
63.408971548080444,0.0073072420174097
63.43770241737366,0.0040690256378866
63.46643328666687,0.005312337194683
63.49516415596008,0.0067771437829585
63.52389478683472,0.0079760376740615
63.55262565612793,0.0069562406843254
63.58135652542114,0.005736503279955
63.610087394714355,0.0037403858594175
63.63881850242615,0.0043392872343001
63.66754913330078,0.0038270089687704
63.696280002593994,0.0036904256872388
63.72501087188721,0.0029612309007456
63.75374174118042,0.004216663082207
63.782472372055054,0.0041246906484755
63.81120324134827,0.0043911293606803
63.8399338722229,0.0035738098947663
63.86866497993469,0.003349531335835
63.897396087646484,0.0040201849374179
63.92612671852112,0.0038670487252362
63.95485758781433,0.0038939824907415
63.983588457107544,0.0034183143694372
64.01231908798218,0.0028008811757331
64.04105019569397,0.0029240546370872
64.0697808265686,0.0028469182843831
64.09851169586182,0.0035268250150758
64.12724256515503,0.0033741717776279
64.15597367286682,0.0035323928056155
64.18470430374146,0.0032433175740692
64.21343517303467,0.0030208045179012
64.24216604232788,0.0028047902467016
64.27089667320251,0.0031163840695073
64.2996277809143,0.0029960343740196
64.32835841178894,0.0034046464916247
64.35708928108215,0.0038783873861887
64.38582015037537,0.0036450901677639
64.41455101966858,0.0038549987191241
64.44328188896179,0.0035773462829698
64.472012758255,0.0039285766892444
64.50074362754822,0.0036498999432176
64.52947449684143,0.0042587980170142
64.55820536613464,0.0034069289481277
64.58693599700928,0.0032946583120362
64.61566686630249,0.002654445741369
64.6443977355957,0.0016357673342328
64.67312860488892,0.0025447316610636
64.70185947418213,0.0029616948158685
64.73059034347534,0.0030997364260071
64.75932121276855,0.0033186214360531
64.78805208206177,0.0034287251046125
64.81678295135498,0.0036638947146298
64.84551358222961,0.0035417135830855
64.87424445152283,0.0028922806855323
64.90297508239746,0.0020442959212477
64.93170619010925,0.0032547686618294
64.96043729782104,0.004613383726588
64.98916792869568,0.0045522464714855
65.01789879798889,0.0045148145452609
65.0466296672821,0.0036840400599731
65.07536053657532,0.0034147475307383
65.10409116744995,0.0036335944132116
65.13282203674316,0.0032955560705558
65.1615526676178,0.0028724597048748
65.19028377532959,0.0033132449047495
65.2190146446228,0.0031939663277548
65.24774551391602,0.0031172662481195
65.27647638320923,0.0034575898449802
65.30520725250244,0.0031213412986906
65.33393788337708,0.0035025065310044
65.36266899108887,0.0030714427495422
65.3913996219635,0.0028195843100078
65.42013049125671,0.002541594431281
65.44886136054993,0.0026588546747314
65.47759222984314,0.0028684487628164
65.50632309913635,0.0029208444131303
65.53505396842957,0.0032919435904206
65.56378483772278,0.0030102388088693
65.59251546859741,0.0034094171686652
65.6212465763092,0.0030195909238264
65.64997720718384,0.0030899757587772
65.67870807647705,0.0032680887898075
65.70743894577026,0.0032704043497617
65.73616981506348,0.0032415946468035
65.76490068435669,0.0027467049519282
65.7936315536499,0.0025840918006954
65.82236242294312,0.0027560263482193
65.85109329223633,0.0034385486655198
65.87982416152954,0.0032125290801244
65.90855479240417,0.0039309515718075
65.93728566169739,0.0036599391133272
65.9660165309906,0.0037731445445877
65.99474740028381,0.0037570335008622
66.02347826957703,0.0032161255014499
66.05220913887024,0.0033999414368163
66.08094000816345,0.0030547132887678
66.10967087745667,0.0033563119993244
66.13840174674988,0.0032859025083954
66.16713237762451,0.0036320871553954
66.19586324691772,0.004614708660576
66.22459387779236,0.0052606893799484
66.25332498550415,0.0051383902488978
66.28205609321594,0.004816482238766
66.31078672409058,0.0032084933710583
66.33951759338379,0.0031751494650493
66.368248462677,0.0035602283534103
66.39697909355164,0.0035400717288611
66.42571020126343,0.0042922572922045
66.45444083213806,0.0038985224789058
66.48317170143127,0.0038832786371127
66.51190257072449,0.0036278110973497
66.54063367843628,0.0029445064665284
66.56936430931091,0.0033106050908724
66.59809517860413,0.003121227412529
66.62682604789734,0.0031736718619806
66.65555667877197,0.0031061612012492
66.68428778648376,0.0028912015158293
66.7130184173584,0.0026961414311813
66.74174928665161,0.0032997104549512
66.77048015594482,0.0059993530480521
66.79921102523804,0.0110140477632812
66.82794189453125,0.0111496773768807
66.85667276382446,0.0117667999655066
66.88540363311768,0.0091740256749897
66.91413450241089,0.0084002893444296
66.9428653717041,0.010197745471242
66.97159600257874,0.0106044189260667
67.00032687187195,0.0142663457289326
67.02905774116516,0.0169662679421593
67.05778861045837,0.017182346864801
67.08651947975159,0.0189744092629059
67.1152503490448,0.0176754547071413
67.14398121833801,0.0197042416513137
67.17271208763123,0.0194955593771303
67.20144295692444,0.0182453446073044
67.23017358779907,0.0166154645839823
67.25890445709229,0.0174978791094815
67.28763508796692,0.0174991436396576
67.31636619567871,0.0160257900471631
67.34509706497192,0.012442520556056
67.37382793426514,0.0050462246628754
67.40255880355835,0.0023758892896741
67.43128967285156,0.0040684344989457
67.46002054214478,0.0043051305259743
67.48875117301941,0.0050215263691979
67.51748204231262,0.0045824806174562
67.54621267318726,0.0035148305933309
67.57494378089905,0.0037232668864534
67.60367465019226,0.0038905431145587
67.63240551948547,0.00421292341061
67.66113638877869,0.0042178350372952
67.6898672580719,0.0035162872351719
67.71859788894653,0.0040606098056416
67.74732899665833,0.0038178919400305
67.77605962753296,0.0042017512712147
67.80479049682617,0.0038718731573555
67.83352136611938,0.0039687729284644
67.86225247383118,0.0051549823655274
67.89098310470581,0.0047845090599925
67.91971397399902,0.0052203097389853
67.94844484329224,0.0040310042053261
67.97717547416687,0.0040806575865387
68.00590658187866,0.0043742449265809
68.0346372127533,0.0040706292722739
68.06336808204651,0.0046605245841107
68.09209895133972,0.0039264666422616
68.12082982063293,0.0037605749930244
68.14956068992615,0.0042092863064021
68.17829155921936,0.0033985323269184
68.20702242851257,0.0038461139331941
68.23575329780579,0.0035362170616781
68.264484167099,0.0033940048645435
68.29321479797363,0.0039193310355879
68.32194566726685,0.0039487260139323
68.35067653656006,0.0040313603604252
68.37940740585327,0.0034646660203325
68.40813827514648,0.0037902574802626
68.4368691444397,0.0036624542287077
68.46560001373291,0.0044949153705777
68.49433088302612,0.004246242256861
68.52306175231934,0.0040934074354553
68.55179238319397,0.0036384038946485
68.58052325248718,0.0035456798550101
68.60925388336182,0.0035002175284939
68.63798499107361,0.0045464034758697
68.6667160987854,0.0042866710283419
68.69544672966003,0.0045229960081014
68.72417759895325,0.0038625866973902
68.75290846824646,0.0036098188146707
68.78163933753967,0.0034746188964939
68.8103699684143,0.0038754769892054
68.83910083770752,0.0033993237020692
68.86783146858215,0.0040312399001413
68.89656257629395,0.0039895997569162
68.92529368400574,0.0044488554718129
68.95402431488037,0.0040793088459348
68.98275518417358,0.0040255166408571
69.0114860534668,0.003499157547883
69.04021668434143,0.003199826646541
69.06894779205322,0.0029405026567504
69.09767842292786,0.0029134986095381
69.12640929222107,0.0031795705642318
69.15514016151428,0.0038426770090533
69.1838710308075,0.0036555932674671
69.21260190010071,0.0040162556723207
69.24133276939392,0.0033369738405532
69.27006363868713,0.0034978926042848
69.29879450798035,0.0036428097356153
69.32752537727356,0.0052183414843033
69.3562560081482,0.0049783709926855
69.3849868774414,0.005355775706856
69.41371774673462,0.0039570931299621
69.44244861602783,0.0040151033783034
69.47117948532104,0.0041250855868877
69.49991035461426,0.0039121043794014
69.52864122390747,0.003229262656576
69.55737209320068,0.0030045760011943
69.5861029624939,0.003503947943268
69.61483359336853,0.0040241151171483
69.64356446266174,0.0040290422455665
69.67229509353638,0.0040480571381361
69.70102620124817,0.0035608120117342
69.72975707054138,0.0040396848366734
69.7584879398346,0.0042306636191318
69.78721880912781,0.0040137368052912
69.81594967842102,0.0038648268905631
69.84468054771423,0.0033241403630802
69.87341117858887,0.0032234979311771
69.90214204788208,0.0039118921983496
69.93087267875671,0.0033509127268191
69.9596037864685,0.0039166877685825
69.98833465576172,0.0031650432761693
70.01706552505493,0.003784172816299
70.04579639434814,0.0037359043851141
70.07452726364136,0.0032259904262207
70.103257894516,0.0034458541169063
70.13198900222778,0.0031691106818213
70.16071963310242,0.0031563316628819
70.18945050239564,0.0031112303334745
70.21818137168884,0.0026608246022134
70.24691247940063,0.0030695189269744
70.27564311027528,0.003389372332423
70.30437397956848,0.0036119961778346
70.33310484886168,0.003657388180777
70.36183547973631,0.0039991196160509
70.39056658744812,0.0039060415423416
70.41929721832275,0.0041237255812495
70.44802808761597,0.0038885969516352
70.47675895690918,0.0036502810727867
70.5054898262024,0.0036756218691134
70.5342206954956,0.0031462715454702
70.56295156478882,0.0033743907800694
70.59168243408205,0.0036285101398178
70.62041306495668,0.0034599203150836
70.64914417266846,0.003551566498608
70.67787480354308,0.0029736452460081
70.7066056728363,0.0031777119633421
70.73533654212952,0.0032759597458989
70.76406741142272,0.0045160341020095
70.79279828071594,0.0036145467597588
70.82152915000916,0.004892881816139
70.85026001930235,0.0040782989673043
70.87899088859558,0.0066030741106649
70.9077217578888,0.0105346272534952
70.93645238876344,0.0116863660103762
70.96518325805664,0.0124417089915304
70.99391388893127,0.0112750646418584
71.02264499664308,0.0112507985762331
71.05137586593628,0.0118265659985397
71.08010673522948,0.0135325027584887
71.10883760452272,0.0144719361200235
71.13756847381592,0.0151469674920803
71.16629934310912,0.017609248701797
71.19502997398376,0.0177613412874373
71.22376084327698,0.0216164247818362
71.2524914741516,0.0223042867448527
71.2812225818634,0.0231590476520475
71.3099536895752,0.0224005203183999
71.33868432044984,0.0222163051891738
71.36741518974304,0.0197690882136576
71.39614605903625,0.018767723805811
71.42487668991087,0.0154618038760112
71.45360779762268,0.0110948570087663
71.48233842849731,0.0094869304369537
71.51106929779051,0.0029400588093757
71.53980016708374,0.001652476495328
71.56853127479552,0.0055528240446534
71.59726190567017,0.0095965402514432
71.62599277496338,0.0087244425935163
71.6547236442566,0.0091183949490018
71.6834545135498,0.0040951555992006
71.71218538284302,0.0043244844900016
71.74091601371764,0.0044557325144505
71.76964688301086,0.0042576362257532
71.79837775230408,0.0042011436543564
71.82710862159728,0.0036060488157072
71.8558394908905,0.0030874283553029
71.88457036018372,0.0036466358217878
71.91330122947691,0.0039903173403078
71.94203209877014,0.0040484846195026
71.97076296806335,0.0052937330825107
71.999493598938,0.0049607275989146
72.0282244682312,0.0050501332614883
72.0569553375244,0.004730049270856
72.08568620681764,0.0034332868916321
72.11441707611084,0.0040295927164543
72.14314794540404,0.0038599454340311
72.17187881469728,0.0038422998427877
72.20060968399048,0.0034214080445149
72.22934055328368,0.0030817099187578
72.25807118415833,0.0034503253114077
72.28680205345154,0.0037226869695279
72.31553268432616,0.0042637069967902
72.34426379203796,0.0042587072876264
72.37299466133118,0.0035059179025713
72.4017255306244,0.0038188388089208
72.4304563999176,0.0027290217949793
72.45918726921082,0.002952754868864
72.48791813850404,0.0030937958780188
72.51664876937866,0.0033837270716054
72.54537963867188,0.0035404642179276
72.57411050796507,0.0036771162754858
72.6028413772583,0.003034056995262
72.63157248497008,0.0031576461275367
72.66030311584473,0.0025748866975654
72.68903398513794,0.0038115115504869
72.71776485443117,0.0036712188282298
72.7464954853058,0.0044280272970101
72.77522659301758,0.003656539195436
72.8039572238922,0.0031248974107823
72.83268809318542,0.0028317791607003
72.86141896247864,0.0023947532464274
72.89014983177184,0.0028508324392267
72.91888070106506,0.0026882697308982
72.94761157035828,0.0030135349559702
72.97634243965148,0.0030549222276221
73.00507307052612,0.0033714964521565
73.03380417823792,0.0030511626443613
73.06253480911256,0.0031452114189773
73.09126567840576,0.0033266339218891
73.11999654769896,0.0036160365236078
73.1487274169922,0.0036386467866346
73.1774582862854,0.0026425933582353
73.2061891555786,0.0027552331610127
73.23492002487184,0.0033939956230855
73.26365089416504,0.0034751696591628
73.29238176345824,0.003451155582177
73.32111239433289,0.0026218915796426
73.3498432636261,0.0028106398851145
73.37857389450072,0.0028631236784766
73.40730500221252,0.0030216330811846
73.43603587150574,0.0033694247105581
73.46476674079896,0.0033055860263225
73.49349761009216,0.0031841234354034
73.52222847938538,0.003343885643445
73.5509593486786,0.003088545066444
73.57968997955322,0.0038896522329178
73.60842084884644,0.0037698714593451
73.63715147972108,0.003789989940227
73.66588258743286,0.004102702199785
73.69461369514464,0.0035131825853925
73.72334432601927,0.0039056751482717
73.7520751953125,0.0029901502113145
73.78080606460571,0.0030368506622882
73.80953693389893,0.0025203408202881
73.83826780319214,0.002594275380932
73.86699843406676,0.0032778964161878
73.8957290649414,0.0033979593657434
73.9244601726532,0.0033226510145878
73.953191280365,0.0029487808739776
73.98192191123962,0.0030689616033798
74.01065278053284,0.0031005606238769
74.03938364982604,0.0029131770797854
74.06811451911926,0.0022874452229624
74.09684538841248,0.0029571939007181
74.12557601928712,0.0035347521036898
74.15430688858032,0.0038005719491434
74.18303775787354,0.0035209322465118
74.21176862716676,0.0034569648593995
74.24049949645996,0.0037628433663275
74.26923036575316,0.0034811386871981
74.2979612350464,0.0035900272108002
74.32669186592102,0.0033583740880781
74.3554229736328,0.0032180478346776
74.38415360450745,0.0035143206964939
74.41288447380066,0.0035647853519406
74.44161534309389,0.0041163853970426
74.47034621238708,0.0040574576048468
74.4990770816803,0.0039136706940272
74.52780795097352,0.0031217970963986
74.55653882026672,0.0028814472399688
74.58526968955994,0.0032571160890521
74.61400055885316,0.0062787822128161
74.64273118972778,0.0063386028931144
74.671462059021,0.006633064350677
74.70019268989564,0.0047252149594845
74.72892379760742,0.0028234081655117
74.75765466690063,0.0034332617252422
74.78638553619383,0.0063427212282501
74.81511640548706,0.0105028838277971
74.84384727478027,0.0116866554766209
74.87257814407349,0.0115003587574551
74.90130877494812,0.0092564375578139
74.93003964424133,0.0078853984529104
74.95877051353455,0.0079108454297174
74.98750138282776,0.0096291236286767
75.01623249053956,0.0147753261337654
75.04496312141418,0.0191299678212741
75.0736939907074,0.0227527768353196
75.1024248600006,0.0244084815467882
75.13115549087524,0.0263761148843001
75.15988659858704,0.0261592443855659
75.18861722946168,0.026034303095846
75.21734809875488,0.0240981041728133
75.2460789680481,0.0216451651877258
75.27481007575987,0.0188292837857097
75.30354070663452,0.0141858457741206
75.33227157592773,0.0076207608666561
75.36100244522096,0.0026810427970074
75.38973307609558,0.0029023449510341
75.41846418380736,0.0028649465596645
75.447194814682,0.0030339905869007
75.47592568397522,0.0024651471920522
75.50465655326845,0.0023550697498629
75.53338742256165,0.0023537115141703
75.56211829185486,0.0027152003952185
75.59084916114809,0.0036454289358405
75.61958003044128,0.0038792142034677
75.6483108997345,0.0038106637456836
75.67704176902772,0.0034123850344677
75.70577239990234,0.0025597615186589
75.73450326919556,0.0030339740735294
75.76323413848876,0.0032152994735287
75.79196500778198,0.0037290531804009
75.8206958770752,0.0049532087132881
75.8494267463684,0.0053928744465883
75.87815761566162,0.0049751261338116
75.90688848495483,0.0044106651389622
75.93561935424805,0.0028133912822163
75.96434998512268,0.003095350941893
75.99308085441588,0.002790573298508
76.02181148529051,0.0043586804682067
76.05054259300232,0.0104788958186694
76.07927370071413,0.0102852177827467
76.10800433158875,0.0115284870792536
76.13673520088196,0.0130453606491259
76.16546607017516,0.0115388992540935
76.19419693946838,0.0123586438088625
76.22292757034302,0.0074513607346146
76.25165843963624,0.0030291305320868
76.28038907051086,0.0029814733531297
76.30912017822266,0.0023868480081922
76.33785128593443,0.0018802816800433
76.36658191680908,0.0015659552230103
76.3953127861023,0.0017692018410856
76.42404365539552,0.002311128740765
76.45277452468872,0.0023957853899104
76.48150539398193,0.0025748674619689
76.51023602485655,0.0023072552908128
76.53896689414978,0.0022684060028345
76.567697763443,0.0024982242147517
76.5964286327362,0.0025104825266223
76.62515950202942,0.0024510468537914
76.65389037132265,0.0022935636125106
76.68262124061584,0.0021186007580236
76.71135187149048,0.0022308261126549
76.74008297920228,0.0023365535213668
76.7688136100769,0.0024075436198262
76.79754447937012,0.00275818512049
76.82627534866332,0.002685774063525
76.85500621795654,0.002687620156751
76.88373708724976,0.0023552897308719
76.91246795654295,0.0019635626388552
76.94119882583618,0.0021411237373985
76.9699296951294,0.0024729641744042
76.9986605644226,0.0027327210244633
77.02739119529724,0.0028532635619683
77.05612206459044,0.0026392858628893
77.08485293388368,0.0026202396865048
77.11358380317688,0.002334259124128
77.14231467247008,0.0025471739742361
77.17104554176332,0.0024230446021151
77.19977641105652,0.0025837859556595
77.22850728034972,0.0025079578451261
77.25723814964294,0.0023742950264783
77.28596878051758,0.0022106200421216
77.3146996498108,0.0019541711171011
77.343430519104,0.0019385202073269
77.37216138839722,0.0021194153636437
77.400892496109,0.0023686520593295
77.42962312698364,0.0025664515370475
77.45835399627686,0.0024137360598074
77.48708486557008,0.0021542254403481
77.51581573486328,0.0029279318991853
77.54454636573792,0.0038854257392613
77.57327723503111,0.0036991840748197
77.60200786590576,0.0042610376227366
77.63073897361755,0.0033681593724368
77.65947008132935,0.0035854898870324
77.68820071220398,0.0030975469633903
77.7169315814972,0.0026284144687724
77.7456624507904,0.0024714831160464
77.77439308166504,0.0026927896294151
77.80312418937685,0.0025530126932866
77.83185482025146,0.0030371311244119
77.86058568954468,0.0031686029526248
77.88931655883788,0.0044024342955329
77.9180474281311,0.0044715156050752
77.94677829742432,0.0042053950223455
77.97550916671752,0.0036528336439359
78.00424003601074,0.0022919926204145
78.03297066688538,0.0026448698262085
78.06170177459715,0.0024561990216668
78.0904324054718,0.0024436477806178
78.119163274765,0.0022489897014924
78.14789414405824,0.0023975951313279
78.17662501335144,0.0025152660911302
78.20535588264464,0.002490047352354
78.23408675193788,0.0023326399858877
78.26281762123108,0.0020517433254316
78.29154849052428,0.0023868408320787
78.32027935981752,0.0024659083629785
78.34900999069214,0.002652385523665
78.37774085998537,0.002923167093888
78.40647149086,0.0030082393284993
78.43520259857178,0.0027503144417356
78.463933467865,0.0024405506908122
78.4926643371582,0.002000923067282
78.52139520645142,0.002404434400075
78.55012607574464,0.0023732633168075
78.57885694503784,0.0027310808208669
78.60758757591248,0.0028725784754838
78.63631844520567,0.0028457875846921
78.66504907608032,0.0027108508437461
78.69378018379211,0.0020616563575403
78.72251129150392,0.0018289700481174
78.75124192237854,0.0017884386366002
78.77997279167175,0.0016776422034254
78.80870366096497,0.0023284322517455
78.83743453025818,0.0048821066281775
78.8661653995514,0.0082235517191604
78.89489603042604,0.0099224918502972
78.92362689971924,0.0124836480968211
78.95235776901244,0.0116842822303942
78.98108863830566,0.0134014396089316
79.00981950759888,0.0115798614586158
79.03855037689208,0.0145035154911298
79.0672812461853,0.0191154631079659
79.09601187705994,0.0191864316747741
79.12474298477171,0.0229535220369714
79.15347361564636,0.0193495977636884
79.18220448493958,0.0195360974109016
79.2109353542328,0.0176339627874165
79.239666223526,0.0169854155307096
79.2683970928192,0.018146129917233
79.29712796211244,0.0179703047525972
79.32585883140564,0.0178386724030596
79.35458970069884,0.0148096873563197
79.38332056999208,0.0113003201996419
79.4120512008667,0.0064956499913314
79.44078207015993,0.0022527681790617
79.46951293945312,0.0033137789573139
79.49824380874634,0.0026721712349209
79.52697467803956,0.0027905731233759
79.55570554733276,0.0051127106349334
79.58443641662598,0.0116964813488419
79.6131672859192,0.0105700923398194
79.6418981552124,0.0114671250367403
79.67062878608704,0.0054229682253086
79.69935965538023,0.0027077804138129
79.72809052467346,0.0039877964815965
79.75682139396667,0.0037492984314457
79.78555250167848,0.0036180781168991
79.8142831325531,0.0032717303357111
79.84301400184631,0.005431125614016
79.87174487113953,0.0093498961683747
79.90047574043274,0.0086011237759
79.92920637130736,0.009166895367997
79.9579372406006,0.0048085105091687
79.98666787147522,0.0039730928843898
80.015398979187,0.003789861821552
80.0441300868988,0.0027954631386699
80.07286071777344,0.0024917405842227
80.10159158706664,0.0038258354175149
80.13032245635986,0.0039081484566098
80.1590530872345,0.0044108946061737
80.18778419494627,0.0030660400467574
80.21651482582092,0.0028376048599377
80.24524569511414,0.0021340106494631
80.27397656440736,0.0023137086903878
80.30270767211914,0.0021757964529153
80.33143830299376,0.0036031246326626
80.360169172287,0.0036733328034919
80.3889000415802,0.0039220380346962
80.41763067245483,0.002976280502357
80.44636178016664,0.0025537835592008
80.47509241104126,0.0034374151360549
80.50382328033449,0.0032934636431766
80.53255414962769,0.0032728582869998
80.5612850189209,0.0023484654585908
80.59001588821413,0.0018320149411786
80.61874675750732,0.0019511715803383
80.64747762680054,0.0018613260594775
80.67620849609376,0.0021321467568538
80.70493936538696,0.0022475206879744
80.7336699962616,0.0022162265112108
80.7624008655548,0.0021260500890748
80.79113173484802,0.0018962077729968
80.81986260414124,0.0021385772282014
80.84859347343443,0.0029678261041803
80.87732434272766,0.0029168016024509
80.90605521202087,0.003211857814647
80.93478608131409,0.0033358786583831
80.9635169506073,0.0031973644192487
80.99224758148193,0.0036411392780255
81.02097845077515,0.0035147991585542
81.04970908164978,0.0032926697148517
81.07844018936156,0.0038964616403703
81.10717129707336,0.0034233496716375
81.135901927948,0.0032053815789448
81.1646327972412,0.0032492191494569
81.19336366653442,0.0029482829477802
81.22209453582764,0.0031944588649688
81.25082516670228,0.003039285387176
81.27955603599548,0.0023033719640782
81.30828666687012,0.0028867657582078
81.33701777458192,0.0027177093811792
81.36574864387512,0.0028589970617332
81.39447951316833,0.0028179318333379
81.42321038246156,0.0025876325389034
81.45194125175476,0.0027565426199324
81.4806718826294,0.0027919580691098
81.5094029903412,0.0032395821024432
81.53813362121582,0.00604919253276
81.56686449050903,0.0058357907276796
81.59559535980225,0.0062263737546638
81.62432622909546,0.0039015729135255
81.65305709838869,0.0030312914424373
81.68178796768188,0.0031158187218191
81.7105188369751,0.0032242709038874
81.73924946784972,0.0036991766952294
81.76798057556152,0.0030612468340238
81.79671120643616,0.0037113363789989
81.82544207572936,0.0035779372304416
81.85417294502258,0.0033250572368956
81.8829038143158,0.0034570980165555
81.911634683609,0.002800714093532
81.94036555290222,0.003239606413672
81.96909642219543,0.0033970775310516
81.99782729148863,0.0037798387011013
82.02655816078186,0.0036116793915724
82.05528879165648,0.0034237512186759
82.08401966094972,0.0031633936358805
82.11275053024292,0.0033815723554781
82.14148139953613,0.0031006820857481
82.17021226882935,0.0031447866522629
82.19894313812256,0.002823377561888
82.22767400741576,0.0027365337134397
82.25640487670898,0.0031619178796004
82.2851357460022,0.0029192417901771
82.31386637687685,0.0029653524815959
82.34259724617004,0.0033096123263104
82.37132787704468,0.00297702592361
82.40005898475648,0.0034158733901616
82.42879009246826,0.0031679986492461
82.4575207233429,0.0033267880239164
82.48625159263612,0.0028408510115735
82.51498246192932,0.0028098322431377
82.54371309280396,0.0025204443311895
82.57244420051576,0.0028063113480556
82.60117483139038,0.0027673086227352
82.6299057006836,0.0030420891816521
82.6586365699768,0.002884919447636
82.6873676776886,0.0035302729045304
82.71609830856325,0.003058702332924
82.74482917785645,0.0031250929993648
82.77356004714966,0.0028411976286034
82.80229067802428,0.0028223437745763
82.83102178573608,0.0029228554446796
82.85975241661072,0.0035486503520649
82.88848328590392,0.0036744125514525
82.91721415519714,0.0051408076107222
82.94594502449036,0.0063068008406848
82.97467589378356,0.0095435111378642
83.00340676307678,0.0103728097402065
83.03213763237,0.0143128218661328
83.0608685016632,0.0145353364496851
83.08959937095642,0.0149394701407009
83.11833000183104,0.0167898464797908
83.14706087112428,0.0166982636294517
83.17579174041748,0.0211047726361732
83.20452260971068,0.0188788985612752
83.23325347900392,0.0186782841379923
83.26198434829712,0.0192031181970876
83.29071521759032,0.0186630622808076
83.31944608688354,0.0199448794914413
83.34817695617676,0.0187375142507844
83.3769075870514,0.015657844335572
83.4056384563446,0.0138541639064594
83.43436908721924,0.0086113366742696
83.46310019493104,0.003435260124887
83.49183130264282,0.0049493879398391
83.52056193351746,0.0046490142885471
83.54929280281068,0.005115800954024
83.57802367210388,0.0028443126535376
83.60675454139708,0.0034954408206005
83.63548517227171,0.004371251452552
83.66421604156494,0.004301904780474
83.69294667243958,0.0039102945301221
83.72167778015135,0.0028215062612902
83.75040864944458,0.0030832846926256
83.7791395187378,0.0030575528490512
83.807870388031,0.0031091349149522
83.83660125732422,0.0025582041420186
83.86533188819884,0.0027278846501839
83.89406299591064,0.0023565165705966
83.92279362678528,0.0025320810987709
83.95152449607848,0.0021547417934509
83.9802553653717,0.002104035865432
84.0089864730835,0.0019283272564286
84.03771710395812,0.0018411592547071
84.06644797325134,0.0019867002057905
84.09517884254456,0.0019607667118669
84.1239094734192,0.00198880014345
84.15264058113098,0.0026355335328112
84.18137121200562,0.0025644267946145
84.21010208129884,0.0029987354977378
84.23883295059204,0.0046655271121932
84.26756381988524,0.0042767051597291
84.29629468917848,0.0048482560047536
84.32502555847168,0.0031725853307653
84.35375642776488,0.0023449027609694
84.38248729705812,0.0021121647986596
84.41121816635132,0.002341976363444
84.43994879722597,0.0033595541493128
84.46867966651917,0.0033095275017495
84.49741053581238,0.0034741290582168
84.5261414051056,0.0024192812312165
84.5548722743988,0.0022417022440354
84.58360314369202,0.0021232290379599
84.61233401298524,0.0021464445729778
84.64106488227844,0.0022688913220035
84.66979575157166,0.0023660882030192
84.69852638244627,0.0023182939332083
84.7272572517395,0.0022645784195354
84.75598788261414,0.0025497330514573
84.78471899032591,0.0027173990152473
84.81345009803772,0.0027667995729284
84.84218072891235,0.002697492827194
84.87091159820557,0.0025091973362102
84.89964246749878,0.0029582722788996
84.928373336792,0.0028495771648894
84.95710396766664,0.0028535249444981
84.98583483695984,0.0029752492402951
85.01456546783449,0.0029367020513171
85.04329657554626,0.0028839712650489
85.07202768325806,0.002936534567464
85.10075831413268,0.0031863227357238
85.1294891834259,0.0033985873800797
85.15822005271912,0.0032517361356822
85.18695068359376,0.0031709378604137
85.21568179130554,0.0027946733252792
85.24441242218018,0.0028447749484384
85.2731432914734,0.0026074626688401
85.3018741607666,0.002251038609078
85.3306050300598,0.002361448659663
85.35933589935304,0.0025937041282856
85.38806676864624,0.002507594230252
85.41679763793944,0.0024911263410156
85.44552850723268,0.0025027516238401
85.47425937652588,0.002307301870662
85.50299000740053,0.0032667564029666
85.53172087669373,0.0034225483584255
85.56045174598694,0.0035932480740143
85.58918261528017,0.0030583017085812
85.61791348457336,0.0024060800972066
85.64664435386658,0.0023603842321206
85.6753752231598,0.0026324320306839
85.704106092453,0.0031238835059976
85.73283696174622,0.0027545038525573
85.76156759262084,0.0030643205650518
85.79029846191406,0.0031387877623332
85.8190290927887,0.0033677711776034
85.84776020050047,0.0034784745079913
85.8764910697937,0.0029143196157971
85.90522193908691,0.0023202215632996
85.93395280838011,0.0023320853582996
85.96268367767334,0.0024532683479042
85.99141454696657,0.0026858024127673
86.0201451778412,0.0025620569324742
86.0488760471344,0.0027012438463725
86.07760667800903,0.0029627680271866
86.10633778572084,0.003311332718456
86.13506865501404,0.0032170405118397
86.16379952430724,0.0029370973283632
86.19253039360046,0.0024730643479704
86.22126126289368,0.0022463300918091
86.24999189376832,0.0021444258211317
86.2787230014801,0.0020643803668399
86.30745363235474,0.0022145558036777
86.33618450164796,0.0020973697774785
86.36491537094116,0.0020603792155604
86.39364647865295,0.0017100730646443
86.4223771095276,0.0021406239514401
86.4511079788208,0.0038094521429677
86.479838848114,0.0037290720964472
86.50856947898863,0.0039493147405637
86.53730058670044,0.0024493307827289
86.56603121757507,0.0014931867637654
86.59476208686829,0.0018775480362531
86.6234929561615,0.0021034123266856
86.65222382545473,0.0027799130954997
86.68095469474792,0.0031099768332788
86.70968556404114,0.0030054176459247
86.73841643333436,0.002751755705553
86.76714730262756,0.0026125505707816
86.79587817192078,0.0026047880344717
86.8246088027954,0.0037522568780882
86.85333967208862,0.0055408787611586
86.88207054138184,0.0101253942946595
86.91080141067503,0.0112510405714504
86.93953227996826,0.0116948507324616
86.96826314926147,0.0094627234992469
86.99699401855467,0.0122164138254981
87.0257248878479,0.0140469413801331
87.05445575714111,0.0161658826470849
87.08318638801576,0.0164916503713152
87.11191725730896,0.016431548089152
87.1406478881836,0.019920362850673
87.1693789958954,0.0205606617845466
87.1981098651886,0.0223892957071528
87.2268407344818,0.0208240346667374
87.25557160377502,0.0201641739116565
87.28430247306824,0.0181526729635327
87.31303334236144,0.0187486323072083
87.34176397323608,0.016205876300725
87.3704948425293,0.0142416934125311
87.39922547340392,0.0123797823899838
87.42795658111572,0.0097817275658491
87.45668768882751,0.0103438616850835
87.48541831970216,0.0085172486272391
87.51414918899536,0.0038068133352997
87.54288005828856,0.0033317424655249
87.5716106891632,0.0026315457349044
87.600341796875,0.0026843524757891
87.62907242774963,0.0022402224829409
87.65780329704285,0.0021481887511912
87.68653416633606,0.0023609537112027
87.71526527404784,0.0027084299620574
87.74399590492249,0.0034987114855298
87.7727267742157,0.0032889112676357
87.80145764350893,0.0032332438897339
87.83018851280212,0.0025285726262404
87.85891938209534,0.0024210595183888
87.88765001296996,0.0033020009202375
87.91638088226318,0.0031391678820082
87.9451117515564,0.0032061483998291
87.9738426208496,0.0023535635077581
88.00257349014282,0.0018560026226289
88.03130435943604,0.0020436056220912
88.06003522872923,0.0027956497585215
88.08876609802246,0.0029551302132203
88.11749696731567,0.0031161724661894
88.14622759819032,0.002557582841694
88.17495846748352,0.0020475969141445
88.20368933677673,0.001834747777307
88.23242020606995,0.0016467154821352
88.26115107536316,0.0017110306847178
88.28988194465636,0.0019868478107395
88.3186128139496,0.0021561440199423
88.3473436832428,0.0022047441566661
88.376074552536,0.0021655936908881
88.40480518341064,0.0019936584448496
88.43353605270386,0.0029836139098466
88.46226668357848,0.004157659795061
88.49099779129028,0.0039524869741063
88.5197286605835,0.0040104860766089
88.54845952987672,0.002488385389206
88.57719039916992,0.0021668514975955
88.60592126846313,0.0022170418448842
88.63465213775636,0.0023177177928028
88.66338276863098,0.0024274130255562
88.6921136379242,0.0032098981322487
88.7208445072174,0.0030324159210947
88.74957537651062,0.0031646704541369
88.7783064842224,0.0026930958957256
88.80703711509705,0.003347055667105
88.83576798439026,0.0033748392705283
88.86449885368349,0.0035190888213912
88.89322948455812,0.0028297523015254
88.9219605922699,0.0024498617214105
88.95069122314452,0.0025497064941768
88.97942209243774,0.0025327008248013
89.00815296173096,0.0023494796614866
89.03688383102416,0.0022429585306009
89.06561470031738,0.0021023711026205
89.0943455696106,0.0025854030872684
89.1230764389038,0.0024857421611861
89.15180706977844,0.0026133201635886
89.18053817749023,0.0021890239494664
89.20926880836488,0.0018427306056164
89.23799967765808,0.0019653467148888
89.26673054695128,0.0019941180993837
89.29546141624452,0.0020042309400276
89.32419228553772,0.0021171504821057
89.35292315483092,0.002162268323055
89.38165402412415,0.0023281530028389
89.41038489341736,0.0022997771434664
89.43911576271056,0.0024094003458293
89.4678463935852,0.0023931091252049
89.49657726287842,0.0023460814923256
89.52530789375304,0.0022294925485518
89.55403900146484,0.0020450248964388
89.58276987075806,0.0021129024528933
89.61150074005128,0.002145296716602
89.64023160934448,0.0020311082813125
89.6689624786377,0.0019223469916962
89.69769334793092,0.0017762799902329
89.72642397880554,0.0019999656739292
89.75515484809875,0.0019773196678129
89.7838854789734,0.0021674856823493
89.81261658668518,0.0020097123602895
89.84134769439696,0.0023447308423046
89.8700783252716,0.0020281628502013
89.89880919456482,0.0022604106887588
89.92754006385805,0.0021118141350355
89.95627069473268,0.0022603386925067
89.98500156402588,0.0023666775916737
90.01373243331908,0.0024715958037089
90.0424633026123,0.0022683895198937
90.07119417190552,0.0023458015539876
90.09992527961732,0.002232132471152
90.12865591049194,0.0021177275839534
90.15738677978516,0.0021203947112417
90.18611764907835,0.0020835620535022
90.21484851837158,0.0020625033770546
90.2435793876648,0.0019517153122106
90.27231001853944,0.001853984809756
90.30104088783264,0.0019662517884725
90.32977175712584,0.0020922114567501
90.35850262641908,0.0023159330933087
90.38723349571228,0.0020566888074524
90.41596436500548,0.002079482564301
90.44469523429872,0.0019675976987425
90.47342586517334,0.0020447258300223
90.50215697288512,0.0020012613323194
90.53088760375977,0.0018097244926292
90.55961847305298,0.0017388448178426
90.5883493423462,0.0018164848797414
90.6170802116394,0.0021552200763772
90.64581108093262,0.0031588332113718
90.67454195022584,0.0031529726057324
90.70327281951904,0.0031826755322151
90.73200368881226,0.002513628489913
90.76073455810548,0.0021136773472833
90.7894651889801,0.0022459625654996
90.81819605827332,0.0021785483208829
90.84692668914796,0.0025861898842145
90.87565779685974,0.0025261795056903
90.90438866615295,0.0026644806868841
90.93311953544615,0.0032597989601241
90.96185040473938,0.0068274270673265
90.99058127403259,0.0085680349159908
91.0193121433258,0.013885212818962
91.04804277420044,0.0142899407384889
91.07677364349364,0.0135082176473575
91.10550451278688,0.0141507120274859
91.13423538208008,0.0130508049502043
91.16296648979188,0.0145119307770821
91.1916971206665,0.0153808998272258
91.22042798995972,0.0162718811618341
91.24915885925292,0.0210867810288731
91.27788949012756,0.0222650398544155
91.30662059783936,0.0222839767184829
91.335351228714,0.0216507546366304
91.3640820980072,0.0204738280657824
91.39281296730042,0.0207217705093689
91.42154407501219,0.0188843771614758
91.45027470588684,0.0154394588697786
91.47900557518004,0.0114996520845967
91.50773644447328,0.0077080091328432
91.5364670753479,0.003655717906189
91.56519818305968,0.0035579526857954
91.59392881393433,0.0029553802674889
91.62265968322754,0.0028181723292579
91.65139055252077,0.0027895305549208
91.68012142181396,0.0026085259884799
91.70885229110718,0.0022603547948253
91.7375831604004,0.002329982314703
91.7663140296936,0.0022344055954103
91.79504489898682,0.002465791212142
91.82377576828004,0.0026136292268565
91.85250639915466,0.0037060108114969
91.88123726844788,0.0037777202014009
91.90996813774107,0.0038822895796842
91.9386990070343,0.0029864756352009
91.96742987632751,0.0021383008522928
91.99616074562071,0.0021645290062318
92.02489161491394,0.0020818669278649
92.05362248420715,0.0019205553928674
92.08235335350037,0.0032641974964223
92.111083984375,0.0047504823666155
92.1398148536682,0.0048586153778062
92.16854548454285,0.0051943871129012
92.19727659225464,0.0033167515755104
92.22600769996644,0.0030687694072409
92.25473833084106,0.0024171882631542
92.28346920013428,0.0027830656574474
92.31220006942748,0.0026680061249941
92.3409309387207,0.002489566365488
92.36966156959534,0.0018070166178254
92.39839243888856,0.0028331932236517
92.42712306976318,0.0032185691933333
92.45585417747498,0.0032913247244321
92.48458528518675,0.0031272591033195
92.5133159160614,0.0020333205812376
92.5420467853546,0.0020341080442679
92.57077765464784,0.0017562456952873
92.59950852394104,0.0019412473494729
92.62823939323424,0.0018509715587558
92.65697002410889,0.0019079787294575
92.6857008934021,0.0015551330774726
92.71443176269533,0.0016565702269175
92.74316263198853,0.0018349279190783
92.77189350128174,0.0022284952426136
92.80062437057497,0.0051093219535086
92.82935523986816,0.006166418495714
92.8580858707428,0.0061545282964759
92.8868169784546,0.0055435199483379
92.91554760932922,0.0031800907743027
92.94427847862244,0.0030658114215066
92.97300934791564,0.0033913809743347
